#     k [MeV]       Xi [MeV]       1/2/Xi [MeV-1]     e(k) [MeV]     Xi_qp [MeV]


# rho=   0.03200 temp=   1.00000
    0.868113E+00    0.218616E+02    0.228711E-01   -0.114975E+02    0.197922E+02
    0.453956E+01    0.218507E+02    0.228826E-01   -0.114858E+02    0.197805E+02
    0.110054E+02    0.217945E+02    0.229415E-01   -0.114232E+02    0.197179E+02
    0.200335E+02    0.216366E+02    0.231090E-01   -0.112449E+02    0.195396E+02
    0.312977E+02    0.213116E+02    0.234614E-01   -0.108664E+02    0.191611E+02
    0.443909E+02    0.207543E+02    0.240913E-01   -0.102191E+02    0.185138E+02
    0.588400E+02    0.199118E+02    0.251107E-01   -0.928249E+01    0.175772E+02
    0.741227E+02    0.187622E+02    0.266493E-01   -0.806356E+01    0.163583E+02
    0.896866E+02    0.173194E+02    0.288694E-01   -0.658640E+01    0.148811E+02
    0.104969E+03    0.156335E+02    0.319826E-01   -0.491853E+01    0.132133E+02
    0.119418E+03    0.137932E+02    0.362498E-01   -0.316173E+01    0.114567E+02
    0.132512E+03    0.119185E+02    0.419514E-01   -0.143767E+01    0.973353E+01
    0.143776E+03    0.101486E+02    0.492679E-01    0.140601E+00    0.815880E+01
    0.152804E+03    0.863065E+01    0.579330E-01    0.147036E+01    0.683920E+01
    0.159270E+03    0.749801E+01    0.666843E-01    0.246032E+01    0.586862E+01
    0.162941E+03    0.684390E+01    0.730577E-01    0.303721E+01    0.531255E+01
    0.163882E+03    0.667572E+01    0.748983E-01    0.318669E+01    0.517018E+01
    0.164188E+03    0.662089E+01    0.755186E-01    0.323563E+01    0.512375E+01
    0.164735E+03    0.652321E+01    0.766494E-01    0.332302E+01    0.504109E+01
    0.165513E+03    0.638413E+01    0.783192E-01    0.344776E+01    0.492366E+01
    0.166509E+03    0.620646E+01    0.805612E-01    0.360825E+01    0.477367E+01
    0.167707E+03    0.599327E+01    0.834269E-01    0.380237E+01    0.459405E+01
    0.169088E+03    0.574882E+01    0.869744E-01    0.402755E+01    0.438852E+01
    0.170628E+03    0.547838E+01    0.912678E-01    0.428073E+01    0.416164E+01
    0.172302E+03    0.518822E+01    0.963721E-01    0.455839E+01    0.391883E+01
    0.174084E+03    0.488558E+01    0.102342E+00    0.485650E+01    0.366642E+01
    0.175943E+03    0.457871E+01    0.109201E+00    0.517063E+01    0.341149E+01
    0.177848E+03    0.427660E+01    0.116915E+00    0.549593E+01    0.316167E+01
    0.179770E+03    0.398860E+01    0.125357E+00    0.582727E+01    0.292470E+01
    0.181676E+03    0.372341E+01    0.134286E+00    0.615927E+01    0.270788E+01
    0.183535E+03    0.348871E+01    0.143319E+00    0.648640E+01    0.251743E+01
    0.185316E+03    0.328990E+01    0.151980E+00    0.680302E+01    0.235779E+01
    0.186991E+03    0.313006E+01    0.159741E+00    0.710350E+01    0.223108E+01
    0.188531E+03    0.300931E+01    0.166151E+00    0.738235E+01    0.213684E+01
    0.189911E+03    0.292461E+01    0.170963E+00    0.763433E+01    0.207216E+01
    0.191109E+03    0.287190E+01    0.174101E+00    0.785461E+01    0.203218E+01
    0.192106E+03    0.285415E+01    0.175184E+00    0.803888E+01    0.201090E+01
    0.192883E+03    0.284613E+01    0.175677E+00    0.818348E+01    0.200206E+01
    0.193430E+03    0.364496E+01    0.137176E+00    0.828550E+01    0.200001E+01
    0.193737E+03    0.272974E+01    0.183167E+00    0.834289E+01    0.200039E+01
    0.193882E+03    0.277107E+01    0.180436E+00    0.836992E+01    0.200094E+01
    0.194188E+03    0.278880E+01    0.179289E+00    0.842746E+01    0.200294E+01
    0.194735E+03    0.278615E+01    0.179459E+00    0.853023E+01    0.200924E+01
    0.195513E+03    0.281891E+01    0.177373E+00    0.867697E+01    0.202429E+01
    0.196509E+03    0.284749E+01    0.175593E+00    0.886583E+01    0.205407E+01
    0.197707E+03    0.290011E+01    0.172407E+00    0.909438E+01    0.210546E+01
    0.199088E+03    0.298770E+01    0.167353E+00    0.935962E+01    0.218553E+01
    0.200628E+03    0.311619E+01    0.160453E+00    0.965798E+01    0.230056E+01
    0.202302E+03    0.328821E+01    0.152059E+00    0.998531E+01    0.245511E+01
    0.204084E+03    0.350800E+01    0.142531E+00    0.103370E+02    0.265115E+01
    0.205943E+03    0.377767E+01    0.132357E+00    0.107077E+02    0.288765E+01
    0.207848E+03    0.408742E+01    0.122327E+00    0.110919E+02    0.316051E+01
    0.209770E+03    0.443304E+01    0.112789E+00    0.114835E+02    0.346302E+01
    0.211676E+03    0.480208E+01    0.104122E+00    0.118762E+02    0.378657E+01
    0.213535E+03    0.518446E+01    0.964420E-01    0.122633E+02    0.412148E+01
    0.215316E+03    0.556794E+01    0.897998E-01    0.126381E+02    0.445774E+01
    0.216991E+03    0.594143E+01    0.841548E-01    0.129940E+02    0.478559E+01
    0.218531E+03    0.629448E+01    0.794346E-01    0.133244E+02    0.509590E+01
    0.219911E+03    0.661764E+01    0.755556E-01    0.136231E+02    0.538036E+01
    0.221109E+03    0.690264E+01    0.724360E-01    0.138844E+02    0.563161E+01
    0.222106E+03    0.714247E+01    0.700038E-01    0.141031E+02    0.584334E+01
    0.222883E+03    0.733138E+01    0.682000E-01    0.142747E+02    0.601036E+01
    0.223430E+03    0.746511E+01    0.669782E-01    0.143959E+02    0.612860E+01
    0.223737E+03    0.754038E+01    0.663097E-01    0.144641E+02    0.619526E+01
    0.224192E+03    0.765236E+01    0.653393E-01    0.145654E+02    0.629447E+01
    0.225823E+03    0.805737E+01    0.620550E-01    0.149310E+02    0.665377E+01
    0.228745E+03    0.879484E+01    0.568515E-01    0.155957E+02    0.731081E+01
    0.232938E+03    0.987654E+01    0.506250E-01    0.165720E+02    0.828146E+01
    0.238374E+03    0.113147E+02    0.441901E-01    0.178792E+02    0.958583E+01
    0.245020E+03    0.131225E+02    0.381026E-01    0.195439E+02    0.112495E+02
    0.252838E+03    0.153151E+02    0.326475E-01    0.215990E+02    0.133043E+02
    0.261789E+03    0.179119E+02    0.279144E-01    0.240833E+02    0.157886E+02
    0.271833E+03    0.209357E+02    0.238826E-01    0.270322E+02    0.187375E+02
    0.282935E+03    0.244126E+02    0.204813E-01    0.304678E+02    0.221731E+02
    0.295062E+03    0.283721E+02    0.176229E-01    0.344341E+02    0.261394E+02
    0.308189E+03    0.328466E+02    0.152223E-01    0.389773E+02    0.306826E+02
    0.322298E+03    0.378729E+02    0.132021E-01    0.440706E+02    0.357759E+02
    0.337379E+03    0.434931E+02    0.114961E-01    0.497645E+02    0.414698E+02
    0.353435E+03    0.497545E+02    0.100493E-01    0.560773E+02    0.477826E+02
    0.370481E+03    0.567128E+02    0.881635E-02    0.630622E+02    0.547675E+02
    0.388545E+03    0.644332E+02    0.775997E-02    0.707624E+02    0.624677E+02
    0.407671E+03    0.729928E+02    0.684999E-02    0.792580E+02    0.709633E+02
    0.427921E+03    0.824840E+02    0.606178E-02    0.886349E+02    0.803402E+02
    0.449380E+03    0.930188E+02    0.537526E-02    0.990136E+02    0.907189E+02
    0.472156E+03    0.104734E+03    0.477398E-02    0.110539E+03    0.102244E+03
    0.496389E+03    0.117801E+03    0.424445E-02    0.123384E+03    0.115089E+03
    0.522256E+03    0.132431E+03    0.377555E-02    0.137761E+03    0.129466E+03
    0.549985E+03    0.148895E+03    0.335807E-02    0.153950E+03    0.145655E+03
    0.579862E+03    0.167540E+03    0.298436E-02    0.172312E+03    0.164017E+03
    0.612261E+03    0.188815E+03    0.264809E-02    0.193316E+03    0.185021E+03
    0.647670E+03    0.213309E+03    0.234402E-02    0.217558E+03    0.209263E+03
    0.686742E+03    0.241802E+03    0.206780E-02    0.245763E+03    0.237468E+03
    0.730374E+03    0.275381E+03    0.181566E-02    0.279000E+03    0.270706E+03
    0.779839E+03    0.315589E+03    0.158434E-02    0.318891E+03    0.310596E+03
    0.837032E+03    0.364814E+03    0.137056E-02    0.367997E+03    0.359702E+03
    0.904943E+03    0.427119E+03    0.117063E-02    0.431192E+03    0.422898E+03
    0.988694E+03    0.510263E+03    0.979887E-03    0.516224E+03    0.507929E+03
    0.109822E+04    0.631018E+03    0.792370E-03    0.640581E+03    0.632286E+03
    0.125712E+04    0.831220E+03    0.601526E-03    0.843628E+03    0.835333E+03
    0.155047E+04    0.127092E+04    0.393415E-03    0.127976E+04    0.127146E+04
