#     k [MeV]       Xi [MeV]       1/2/Xi [MeV-1]     e(k) [MeV]     Xi_qp [MeV]


# rho=   0.01500 temp=   0.90000
    0.638873E+00    0.136382E+02    0.366618E-01   -0.651913E+01    0.119564E+02
    0.334081E+01    0.136322E+02    0.366778E-01   -0.651233E+01    0.119496E+02
    0.809926E+01    0.136024E+02    0.367581E-01   -0.647738E+01    0.119146E+02
    0.147433E+02    0.135182E+02    0.369872E-01   -0.637967E+01    0.118169E+02
    0.230330E+02    0.133406E+02    0.374795E-01   -0.617502E+01    0.116123E+02
    0.326688E+02    0.130336E+02    0.383624E-01   -0.582266E+01    0.112599E+02
    0.433023E+02    0.125690E+02    0.397804E-01   -0.529864E+01    0.107360E+02
    0.545493E+02    0.119352E+02    0.418928E-01   -0.460484E+01    0.100423E+02
    0.660033E+02    0.111394E+02    0.448856E-01   -0.376959E+01    0.920746E+01
    0.772504E+02    0.102112E+02    0.489660E-01   -0.284555E+01    0.828442E+01
    0.878839E+02    0.920200E+01    0.543360E-01   -0.189344E+01    0.733489E+01
    0.975196E+02    0.817935E+01    0.611296E-01   -0.969373E+00    0.641696E+01
    0.105809E+03    0.722245E+01    0.692286E-01   -0.127628E+00    0.558785E+01
    0.112453E+03    0.641107E+01    0.779901E-01    0.580729E+00    0.490072E+01
    0.117212E+03    0.581205E+01    0.860282E-01    0.110767E+01    0.440062E+01
    0.119914E+03    0.546824E+01    0.914372E-01    0.141465E+01    0.411576E+01
    0.120625E+03    0.537784E+01    0.929741E-01    0.149641E+01    0.404090E+01
    0.120932E+03    0.533874E+01    0.936551E-01    0.153183E+01    0.400862E+01
    0.121479E+03    0.526899E+01    0.948949E-01    0.159512E+01    0.395115E+01
    0.122256E+03    0.516985E+01    0.967146E-01    0.168559E+01    0.386956E+01
    0.123253E+03    0.504343E+01    0.991388E-01    0.180219E+01    0.376538E+01
    0.124451E+03    0.489148E+01    0.102219E+00    0.194353E+01    0.364073E+01
    0.125831E+03    0.471769E+01    0.105984E+00    0.210790E+01    0.349823E+01
    0.127371E+03    0.452559E+01    0.110483E+00    0.229324E+01    0.334112E+01
    0.129046E+03    0.431957E+01    0.115752E+00    0.249715E+01    0.317316E+01
    0.130827E+03    0.410491E+01    0.121805E+00    0.271686E+01    0.299871E+01
    0.132686E+03    0.388769E+01    0.128611E+00    0.294925E+01    0.282260E+01
    0.134592E+03    0.367417E+01    0.136085E+00    0.319085E+01    0.264989E+01
    0.136514E+03    0.347067E+01    0.144064E+00    0.343790E+01    0.248571E+01
    0.138419E+03    0.328318E+01    0.152291E+00    0.368639E+01    0.233480E+01
    0.140278E+03    0.311679E+01    0.160422E+00    0.393212E+01    0.220116E+01
    0.142060E+03    0.297512E+01    0.168060E+00    0.417078E+01    0.208764E+01
    0.143734E+03    0.285967E+01    0.174846E+00    0.439802E+01    0.199567E+01
    0.145274E+03    0.276942E+01    0.180543E+00    0.460959E+01    0.192509E+01
    0.146655E+03    0.270450E+01    0.184877E+00    0.480138E+01    0.187425E+01
    0.147853E+03    0.266689E+01    0.187485E+00    0.496952E+01    0.184032E+01
    0.148849E+03    0.263454E+01    0.189787E+00    0.511054E+01    0.181972E+01
    0.149627E+03    0.263536E+01    0.189727E+00    0.522145E+01    0.180861E+01
    0.150174E+03    0.262173E+01    0.190713E+00    0.529982E+01    0.180349E+01
    0.150480E+03    0.261512E+01    0.191196E+00    0.534396E+01    0.180161E+01
    0.150625E+03    0.261996E+01    0.190842E+00    0.536477E+01    0.180097E+01
    0.150932E+03    0.270300E+01    0.184979E+00    0.540907E+01    0.180015E+01
    0.151479E+03    0.252040E+01    0.198381E+00    0.548828E+01    0.180048E+01
    0.152256E+03    0.259788E+01    0.192464E+00    0.560158E+01    0.180500E+01
    0.153253E+03    0.260383E+01    0.192025E+00    0.574773E+01    0.181782E+01
    0.154451E+03    0.263955E+01    0.189427E+00    0.592510E+01    0.184387E+01
    0.155831E+03    0.269280E+01    0.185681E+00    0.613163E+01    0.188843E+01
    0.157371E+03    0.277020E+01    0.180492E+00    0.636482E+01    0.195660E+01
    0.159046E+03    0.287962E+01    0.173634E+00    0.662171E+01    0.205262E+01
    0.160827E+03    0.302409E+01    0.165339E+00    0.689891E+01    0.217930E+01
    0.162686E+03    0.320399E+01    0.156056E+00    0.719262E+01    0.233746E+01
    0.164592E+03    0.341733E+01    0.146313E+00    0.749859E+01    0.252571E+01
    0.166514E+03    0.365961E+01    0.136627E+00    0.781218E+01    0.274044E+01
    0.168419E+03    0.392387E+01    0.127425E+00    0.812834E+01    0.297608E+01
    0.170278E+03    0.420220E+01    0.118985E+00    0.844166E+01    0.322561E+01
    0.172060E+03    0.448561E+01    0.111468E+00    0.874652E+01    0.348110E+01
    0.173734E+03    0.476511E+01    0.104929E+00    0.903721E+01    0.373434E+01
    0.175274E+03    0.503207E+01    0.993626E-01    0.930815E+01    0.397733E+01
    0.176655E+03    0.527853E+01    0.947234E-01    0.955396E+01    0.420257E+01
    0.177853E+03    0.549735E+01    0.909530E-01    0.976961E+01    0.440331E+01
    0.178849E+03    0.568242E+01    0.879907E-01    0.995054E+01    0.457366E+01
    0.179627E+03    0.582894E+01    0.857790E-01    0.100929E+02    0.470874E+01
    0.180174E+03    0.593272E+01    0.842784E-01    0.101935E+02    0.480473E+01
    0.180480E+03    0.599139E+01    0.834531E-01    0.102501E+02    0.485896E+01
    0.180848E+03    0.606195E+01    0.824818E-01    0.103182E+02    0.492426E+01
    0.182107E+03    0.630572E+01    0.792931E-01    0.105528E+02    0.515053E+01
    0.184362E+03    0.675071E+01    0.740663E-01    0.109792E+02    0.556555E+01
    0.187598E+03    0.740569E+01    0.675157E-01    0.116049E+02    0.618069E+01
    0.191793E+03    0.827875E+01    0.603956E-01    0.124401E+02    0.700874E+01
    0.196922E+03    0.937764E+01    0.533183E-01    0.134978E+02    0.806270E+01
    0.202956E+03    0.107099E+02    0.466858E-01    0.147921E+02    0.935548E+01
    0.209864E+03    0.122847E+02    0.407011E-01    0.163374E+02    0.109003E+02
    0.217615E+03    0.141138E+02    0.354264E-01    0.181494E+02    0.127122E+02
    0.226183E+03    0.162110E+02    0.308432E-01    0.202487E+02    0.148115E+02
    0.235543E+03    0.185935E+02    0.268912E-01    0.226659E+02    0.172287E+02
    0.245674E+03    0.212805E+02    0.234957E-01    0.254333E+02    0.199961E+02
    0.256562E+03    0.242936E+02    0.205816E-01    0.285609E+02    0.231237E+02
    0.268201E+03    0.276575E+02    0.180783E-01    0.320401E+02    0.266029E+02
    0.280593E+03    0.314020E+02    0.159225E-01    0.359034E+02    0.304662E+02
    0.293748E+03    0.355611E+02    0.140603E-01    0.401946E+02    0.347574E+02
    0.307689E+03    0.401749E+02    0.124456E-01    0.449051E+02    0.394679E+02
    0.322450E+03    0.452916E+02    0.110396E-01    0.500777E+02    0.446405E+02
    0.338078E+03    0.509680E+02    0.981009E-02    0.557866E+02    0.503494E+02
    0.354639E+03    0.572718E+02    0.873030E-02    0.620919E+02    0.566547E+02
    0.372217E+03    0.642862E+02    0.777772E-02    0.690818E+02    0.636446E+02
    0.390919E+03    0.721131E+02    0.693355E-02    0.768617E+02    0.714244E+02
    0.410883E+03    0.808800E+02    0.618200E-02    0.855579E+02    0.801207E+02
    0.432282E+03    0.907476E+02    0.550978E-02    0.953388E+02    0.899016E+02
    0.455340E+03    0.101923E+03    0.490566E-02    0.106415E+03    0.100978E+03
    0.480345E+03    0.114676E+03    0.436011E-02    0.119061E+03    0.113624E+03
    0.507672E+03    0.129368E+03    0.386496E-02    0.133634E+03    0.128196E+03
    0.537826E+03    0.146492E+03    0.341317E-02    0.150622E+03    0.145185E+03
    0.571499E+03    0.166747E+03    0.299856E-02    0.170715E+03    0.165278E+03
    0.609675E+03    0.191158E+03    0.261564E-02    0.194926E+03    0.189489E+03
    0.653814E+03    0.221303E+03    0.225935E-02    0.224827E+03    0.219390E+03
    0.706225E+03    0.259741E+03    0.192500E-02    0.263018E+03    0.257581E+03
    0.770861E+03    0.310995E+03    0.160774E-02    0.314305E+03    0.308868E+03
    0.855391E+03    0.384181E+03    0.130147E-02    0.387945E+03    0.382508E+03
    0.978023E+03    0.502836E+03    0.994360E-03    0.508768E+03    0.503330E+03
    0.120442E+04    0.765600E+03    0.653082E-03    0.772561E+03    0.767123E+03
