#     k [MeV]       Xi [MeV]       1/2/Xi [MeV-1]     e(k) [MeV]     Xi_qp [MeV]


# rho=   0.16000 temp=   0.04000
    0.159733E+01    0.732285E+02    0.682794E-02   -0.428431E+02    0.645269E+02
    0.835280E+01    0.731840E+02    0.683210E-02   -0.428009E+02    0.644847E+02
    0.202500E+02    0.729664E+02    0.685247E-02   -0.425732E+02    0.642570E+02
    0.368617E+02    0.723471E+02    0.691112E-02   -0.419381E+02    0.636220E+02
    0.575878E+02    0.710685E+02    0.703546E-02   -0.406269E+02    0.623108E+02
    0.816794E+02    0.688732E+02    0.725972E-02   -0.384175E+02    0.601014E+02
    0.108266E+03    0.655681E+02    0.762566E-02   -0.351901E+02    0.568740E+02
    0.136386E+03    0.610610E+02    0.818853E-02   -0.308913E+02    0.525752E+02
    0.165023E+03    0.554013E+02    0.902506E-02   -0.256066E+02    0.472905E+02
    0.193144E+03    0.487890E+02    0.102482E-01   -0.195710E+02    0.412549E+02
    0.219730E+03    0.415716E+02    0.120274E-01   -0.131419E+02    0.348258E+02
    0.243821E+03    0.342143E+02    0.146138E-01   -0.667858E+01    0.283624E+02
    0.264548E+03    0.272578E+02    0.183434E-01   -0.653109E+00    0.223370E+02
    0.281159E+03    0.212506E+02    0.235288E-01    0.443995E+01    0.172439E+02
    0.293056E+03    0.167061E+02    0.299292E-01    0.826228E+01    0.134216E+02
    0.299812E+03    0.140333E+02    0.356294E-01    0.105007E+02    0.111831E+02
    0.301481E+03    0.133619E+02    0.374199E-01    0.110621E+02    0.106217E+02
    0.301788E+03    0.132380E+02    0.377700E-01    0.111657E+02    0.105181E+02
    0.302335E+03    0.130170E+02    0.384112E-01    0.113506E+02    0.103333E+02
    0.303113E+03    0.127021E+02    0.393635E-01    0.116141E+02    0.100697E+02
    0.304109E+03    0.122973E+02    0.406595E-01    0.119528E+02    0.973104E+01
    0.305307E+03    0.118077E+02    0.423454E-01    0.123618E+02    0.932210E+01
    0.306688E+03    0.112416E+02    0.444777E-01    0.128351E+02    0.884879E+01
    0.308228E+03    0.106064E+02    0.471413E-01    0.133657E+02    0.831812E+01
    0.309902E+03    0.991086E+01    0.504497E-01    0.139457E+02    0.773811E+01
    0.311684E+03    0.916785E+01    0.545384E-01    0.145662E+02    0.711768E+01
    0.313542E+03    0.838451E+01    0.596338E-01    0.152173E+02    0.646653E+01
    0.315448E+03    0.757788E+01    0.659816E-01    0.158888E+02    0.579508E+01
    0.317370E+03    0.675201E+01    0.740521E-01    0.165696E+02    0.511425E+01
    0.319276E+03    0.593522E+01    0.842429E-01    0.172485E+02    0.443534E+01
    0.321135E+03    0.513385E+01    0.973927E-01    0.179140E+02    0.376983E+01
    0.322916E+03    0.436016E+01    0.114675E+00    0.185548E+02    0.312905E+01
    0.324591E+03    0.363003E+01    0.137740E+00    0.191599E+02    0.252399E+01
    0.326131E+03    0.295869E+01    0.168993E+00    0.197187E+02    0.196512E+01
    0.327511E+03    0.236189E+01    0.211695E+00    0.202217E+02    0.146216E+01
    0.328709E+03    0.185661E+01    0.269308E+00    0.206598E+02    0.102402E+01
    0.329705E+03    0.146142E+01    0.342134E+00    0.210253E+02    0.658576E+00
    0.330483E+03    0.118635E+01    0.421460E+00    0.213114E+02    0.372524E+00
    0.331030E+03    0.995239E+00    0.502392E+00    0.215129E+02    0.175755E+00
    0.331337E+03    0.762174E+00    0.656018E+00    0.216262E+02    0.933999E-01
    0.331481E+03    0.156364E+00    0.319766E+01    0.216795E+02    0.800788E-01
    0.331788E+03    0.144992E+01    0.344846E+00    0.217929E+02    0.124339E+00
    0.332335E+03    0.128381E+01    0.389466E+00    0.219953E+02    0.311675E+00
    0.333113E+03    0.145700E+01    0.343171E+00    0.222837E+02    0.599876E+00
    0.334109E+03    0.181300E+01    0.275786E+00    0.226542E+02    0.970325E+00
    0.335307E+03    0.230532E+01    0.216890E+00    0.231013E+02    0.141742E+01
    0.336688E+03    0.290390E+01    0.172182E+00    0.236185E+02    0.193462E+01
    0.338228E+03    0.358865E+01    0.139328E+00    0.241981E+02    0.251426E+01
    0.339902E+03    0.434346E+01    0.115116E+00    0.248315E+02    0.314761E+01
    0.341684E+03    0.515338E+01    0.970237E-01    0.255088E+02    0.382497E+01
    0.343542E+03    0.600250E+01    0.832986E-01    0.262197E+02    0.453580E+01
    0.345448E+03    0.687964E+01    0.726782E-01    0.269527E+02    0.526884E+01
    0.347370E+03    0.777499E+01    0.643087E-01    0.276962E+02    0.601230E+01
    0.349276E+03    0.866153E+01    0.577265E-01    0.284379E+02    0.675404E+01
    0.351135E+03    0.953040E+01    0.524637E-01    0.291656E+02    0.748179E+01
    0.352916E+03    0.103679E+02    0.482258E-01    0.298672E+02    0.818332E+01
    0.354591E+03    0.111566E+02    0.448167E-01    0.305305E+02    0.884661E+01
    0.356131E+03    0.118866E+02    0.420641E-01    0.311439E+02    0.946004E+01
    0.357511E+03    0.125417E+02    0.398670E-01    0.316965E+02    0.100126E+02
    0.358709E+03    0.131132E+02    0.381296E-01    0.321783E+02    0.104944E+02
    0.359705E+03    0.135893E+02    0.367937E-01    0.325803E+02    0.108965E+02
    0.360483E+03    0.139614E+02    0.358130E-01    0.328953E+02    0.112114E+02
    0.361030E+03    0.142238E+02    0.351524E-01    0.331172E+02    0.114333E+02
    0.361337E+03    0.143713E+02    0.347917E-01    0.332419E+02    0.115580E+02
    0.362070E+03    0.147239E+02    0.339584E-01    0.335402E+02    0.118564E+02
    0.364885E+03    0.160829E+02    0.310889E-01    0.346933E+02    0.130094E+02
    0.369929E+03    0.185401E+02    0.269686E-01    0.367854E+02    0.151015E+02
    0.377166E+03    0.221181E+02    0.226060E-01    0.398434E+02    0.181596E+02
    0.386549E+03    0.268483E+02    0.186231E-01    0.439084E+02    0.222245E+02
    0.398020E+03    0.327703E+02    0.152577E-01    0.490438E+02    0.273599E+02
    0.411514E+03    0.399327E+02    0.125211E-01    0.553117E+02    0.336278E+02
    0.426963E+03    0.483891E+02    0.103329E-01    0.628120E+02    0.411282E+02
    0.444300E+03    0.582014E+02    0.859085E-02    0.716500E+02    0.499661E+02
    0.463462E+03    0.694328E+02    0.720121E-02    0.819296E+02    0.602457E+02
    0.484394E+03    0.821530E+02    0.608621E-02    0.937384E+02    0.720545E+02
    0.507052E+03    0.964278E+02    0.518523E-02    0.107122E+03    0.854383E+02
    0.531403E+03    0.112324E+03    0.445141E-02    0.122105E+03    0.100421E+03
    0.557434E+03    0.129906E+03    0.384895E-02    0.138691E+03    0.117007E+03
    0.585148E+03    0.149234E+03    0.335044E-02    0.156916E+03    0.135232E+03
    0.614570E+03    0.170381E+03    0.293460E-02    0.176854E+03    0.155170E+03
    0.645748E+03    0.193425E+03    0.258498E-02    0.198662E+03    0.176978E+03
    0.678760E+03    0.218476E+03    0.228858E-02    0.222614E+03    0.200930E+03
    0.713712E+03    0.245696E+03    0.203504E-02    0.249117E+03    0.227434E+03
    0.750750E+03    0.275342E+03    0.181593E-02    0.278590E+03    0.256906E+03
    0.790063E+03    0.307773E+03    0.162457E-02    0.311625E+03    0.289941E+03
    0.831890E+03    0.343518E+03    0.145553E-02    0.348974E+03    0.327290E+03
    0.876538E+03    0.383301E+03    0.130446E-02    0.391090E+03    0.369406E+03
    0.924398E+03    0.428057E+03    0.116807E-02    0.439106E+03    0.417422E+03
    0.975968E+03    0.478995E+03    0.104385E-02    0.493926E+03    0.472242E+03
    0.103189E+04    0.537670E+03    0.929939E-03    0.557345E+03    0.535661E+03
    0.109301E+04    0.606090E+03    0.824959E-03    0.630285E+03    0.608602E+03
    0.116045E+04    0.687024E+03    0.727777E-03    0.714866E+03    0.693183E+03
    0.123576E+04    0.784156E+03    0.637629E-03    0.814901E+03    0.793217E+03
    0.132113E+04    0.902473E+03    0.554033E-03    0.931793E+03    0.910109E+03
    0.141985E+04    0.104887E+04    0.476702E-03    0.107566E+04    0.105398E+04
    0.153707E+04    0.123497E+04    0.404868E-03    0.125877E+04    0.123708E+04
    0.168162E+04    0.148309E+04    0.337134E-03    0.150511E+04    0.148343E+04
    0.187067E+04    0.184055E+04    0.271658E-03    0.186227E+04    0.184058E+04
    0.214494E+04    0.242664E+04    0.206046E-03    0.244833E+04    0.242664E+04
    0.265127E+04    0.371898E+04    0.134445E-03    0.374066E+04    0.371898E+04
