#     k [MeV]       Xi [MeV]       1/2/Xi [MeV-1]     e(k) [MeV]     Xi_qp [MeV]


# rho=   0.02000 temp=   0.90000
    0.719171E+00    0.160489E+02    0.311548E-01   -0.860170E+01    0.148561E+02
    0.376071E+01    0.160414E+02    0.311693E-01   -0.858933E+01    0.148437E+02
    0.911723E+01    0.160026E+02    0.312450E-01   -0.853287E+01    0.147873E+02
    0.165964E+02    0.158931E+02    0.314602E-01   -0.838162E+01    0.146360E+02
    0.259280E+02    0.156690E+02    0.319101E-01   -0.807773E+01    0.143321E+02
    0.367748E+02    0.152845E+02    0.327129E-01   -0.756554E+01    0.138199E+02
    0.487449E+02    0.147026E+02    0.340076E-01   -0.679856E+01    0.130530E+02
    0.614055E+02    0.139083E+02    0.359497E-01   -0.577589E+01    0.120303E+02
    0.742991E+02    0.129129E+02    0.387209E-01   -0.455670E+01    0.108112E+02
    0.869598E+02    0.117537E+02    0.425397E-01   -0.324960E+01    0.950450E+01
    0.989298E+02    0.104940E+02    0.476464E-01   -0.196178E+01    0.821796E+01
    0.109777E+03    0.921597E+01    0.542536E-01   -0.763585E+00    0.702375E+01
    0.119108E+03    0.801443E+01    0.623874E-01    0.299370E+00    0.597099E+01
    0.126587E+03    0.699050E+01    0.715257E-01    0.117728E+01    0.511328E+01
    0.131944E+03    0.623195E+01    0.802317E-01    0.182389E+01    0.449549E+01
    0.134985E+03    0.579558E+01    0.862726E-01    0.219835E+01    0.414656E+01
    0.135777E+03    0.568218E+01    0.879944E-01    0.229667E+01    0.405637E+01
    0.136084E+03    0.563806E+01    0.886830E-01    0.233490E+01    0.402148E+01
    0.136631E+03    0.555942E+01    0.899374E-01    0.240316E+01    0.395945E+01
    0.137408E+03    0.544810E+01    0.917752E-01    0.250058E+01    0.387154E+01
    0.138405E+03    0.530549E+01    0.942421E-01    0.262590E+01    0.375961E+01
    0.139603E+03    0.513496E+01    0.973716E-01    0.277745E+01    0.362611E+01
    0.140983E+03    0.493941E+01    0.101227E+00    0.295323E+01    0.347413E+01
    0.142523E+03    0.472408E+01    0.105841E+00    0.315085E+01    0.330740E+01
    0.144198E+03    0.449395E+01    0.111261E+00    0.336760E+01    0.313023E+01
    0.145979E+03    0.425510E+01    0.117506E+00    0.360043E+01    0.294748E+01
    0.147838E+03    0.401431E+01    0.124554E+00    0.384602E+01    0.276448E+01
    0.149744E+03    0.377876E+01    0.132318E+00    0.410072E+01    0.258675E+01
    0.151665E+03    0.355570E+01    0.140619E+00    0.436065E+01    0.241977E+01
    0.153571E+03    0.335181E+01    0.149173E+00    0.462176E+01    0.226851E+01
    0.155430E+03    0.317271E+01    0.157594E+00    0.487981E+01    0.213702E+01
    0.157212E+03    0.302224E+01    0.165440E+00    0.513043E+01    0.202809E+01
    0.158886E+03    0.290192E+01    0.172300E+00    0.536915E+01    0.194284E+01
    0.160426E+03    0.281120E+01    0.177860E+00    0.559148E+01    0.188066E+01
    0.161806E+03    0.275169E+01    0.181706E+00    0.579304E+01    0.183925E+01
    0.163005E+03    0.272484E+01    0.183497E+00    0.596974E+01    0.181498E+01
    0.164001E+03    0.268589E+01    0.186158E+00    0.611791E+01    0.180345E+01
    0.164779E+03    0.294207E+01    0.169949E+00    0.623441E+01    0.180007E+01
    0.165326E+03    0.265816E+01    0.188100E+00    0.631672E+01    0.180072E+01
    0.165632E+03    0.268016E+01    0.186556E+00    0.636307E+01    0.180219E+01
    0.165777E+03    0.267667E+01    0.186799E+00    0.638491E+01    0.180315E+01
    0.166084E+03    0.266249E+01    0.187794E+00    0.643142E+01    0.180580E+01
    0.166631E+03    0.266421E+01    0.187673E+00    0.651457E+01    0.181252E+01
    0.167408E+03    0.269523E+01    0.185513E+00    0.663348E+01    0.182653E+01
    0.168405E+03    0.271277E+01    0.184313E+00    0.678685E+01    0.185220E+01
    0.169603E+03    0.275982E+01    0.181172E+00    0.697296E+01    0.189462E+01
    0.170983E+03    0.283562E+01    0.176329E+00    0.718970E+01    0.195915E+01
    0.172523E+03    0.294082E+01    0.170020E+00    0.743451E+01    0.205080E+01
    0.174198E+03    0.308196E+01    0.162235E+00    0.770442E+01    0.217349E+01
    0.175979E+03    0.326232E+01    0.153265E+00    0.799594E+01    0.232946E+01
    0.177838E+03    0.348217E+01    0.143589E+00    0.830512E+01    0.251877E+01
    0.179744E+03    0.373779E+01    0.133769E+00    0.862750E+01    0.273909E+01
    0.181665E+03    0.402276E+01    0.124293E+00    0.895815E+01    0.298584E+01
    0.183571E+03    0.432918E+01    0.115495E+00    0.929177E+01    0.325263E+01
    0.185430E+03    0.464792E+01    0.107575E+00    0.962272E+01    0.353180E+01
    0.187212E+03    0.496932E+01    0.100617E+00    0.994512E+01    0.381501E+01
    0.188886E+03    0.528372E+01    0.946303E-01    0.102530E+02    0.409374E+01
    0.190426E+03    0.558197E+01    0.895741E-01    0.105402E+02    0.435970E+01
    0.191806E+03    0.585579E+01    0.853856E-01    0.108010E+02    0.460518E+01
    0.193005E+03    0.609787E+01    0.819959E-01    0.110300E+02    0.482321E+01
    0.194001E+03    0.630196E+01    0.793404E-01    0.112222E+02    0.500777E+01
    0.194779E+03    0.646313E+01    0.773619E-01    0.113734E+02    0.515382E+01
    0.195326E+03    0.657711E+01    0.760212E-01    0.114803E+02    0.525748E+01
    0.195632E+03    0.664147E+01    0.752845E-01    0.115406E+02    0.531599E+01
    0.196031E+03    0.672523E+01    0.743469E-01    0.116190E+02    0.539228E+01
    0.197420E+03    0.701983E+01    0.712268E-01    0.118945E+02    0.566151E+01
    0.199909E+03    0.755649E+01    0.661683E-01    0.123960E+02    0.615501E+01
    0.203480E+03    0.834383E+01    0.599245E-01    0.131336E+02    0.688578E+01
    0.208110E+03    0.939043E+01    0.532457E-01    0.141203E+02    0.786843E+01
    0.213770E+03    0.107049E+02    0.467077E-01    0.153720E+02    0.911834E+01
    0.220429E+03    0.122983E+02    0.406559E-01    0.169073E+02    0.106531E+02
    0.228052E+03    0.141851E+02    0.352483E-01    0.187478E+02    0.124935E+02
    0.236607E+03    0.163812E+02    0.305228E-01    0.209193E+02    0.146649E+02
    0.246062E+03    0.189046E+02    0.264486E-01    0.234549E+02    0.172005E+02
    0.256391E+03    0.217763E+02    0.229608E-01    0.263903E+02    0.201359E+02
    0.267572E+03    0.250177E+02    0.199859E-01    0.297331E+02    0.234787E+02
    0.279588E+03    0.286582E+02    0.174470E-01    0.334892E+02    0.272348E+02
    0.292433E+03    0.327287E+02    0.152771E-01    0.377004E+02    0.314460E+02
    0.306108E+03    0.372641E+02    0.134177E-01    0.423730E+02    0.361186E+02
    0.320626E+03    0.423057E+02    0.118187E-01    0.475148E+02    0.412604E+02
    0.336011E+03    0.479016E+02    0.104381E-01    0.531894E+02    0.469350E+02
    0.352301E+03    0.541088E+02    0.924064E-02    0.594366E+02    0.531822E+02
    0.369548E+03    0.609953E+02    0.819735E-02    0.663311E+02    0.600767E+02
    0.387825E+03    0.686433E+02    0.728403E-02    0.739456E+02    0.676912E+02
    0.407223E+03    0.771534E+02    0.648060E-02    0.823809E+02    0.761265E+02
    0.427863E+03    0.866503E+02    0.577032E-02    0.917670E+02    0.855126E+02
    0.449895E+03    0.972900E+02    0.513927E-02    0.102267E+03    0.960130E+02
    0.473511E+03    0.109270E+03    0.457584E-02    0.114097E+03    0.107843E+03
    0.498958E+03    0.122842E+03    0.407026E-02    0.127511E+03    0.121257E+03
    0.526553E+03    0.138338E+03    0.361433E-02    0.142840E+03    0.136586E+03
    0.556711E+03    0.156197E+03    0.320109E-02    0.160531E+03    0.154276E+03
    0.589989E+03    0.177019E+03    0.282456E-02    0.181172E+03    0.174918E+03
    0.627150E+03    0.201644E+03    0.247961E-02    0.205604E+03    0.199349E+03
    0.669280E+03    0.231296E+03    0.216173E-02    0.235016E+03    0.228762E+03
    0.717992E+03    0.267833E+03    0.186684E-02    0.271325E+03    0.265071E+03
    0.775832E+03    0.314261E+03    0.159103E-02    0.317860E+03    0.311605E+03
    0.847164E+03    0.375907E+03    0.133012E-02    0.379890E+03    0.373636E+03
    0.940450E+03    0.463837E+03    0.107796E-02    0.469562E+03    0.463307E+03
    0.107579E+04    0.607857E+03    0.822562E-03    0.616671E+03    0.610416E+03
    0.132564E+04    0.928391E+03    0.538566E-03    0.936615E+03    0.930361E+03
