#     k [MeV]       Xi [MeV]       1/2/Xi [MeV-1]     e(k) [MeV]     Xi_qp [MeV]


# rho=   0.08000 temp=   0.90000
    0.123500E+01    0.416883E+02    0.119938E-01   -0.239143E+02    0.367607E+02
    0.645811E+01    0.416645E+02    0.120006E-01   -0.238946E+02    0.367411E+02
    0.156566E+02    0.415466E+02    0.120347E-01   -0.237827E+02    0.366292E+02
    0.285002E+02    0.412172E+02    0.121308E-01   -0.234769E+02    0.363234E+02
    0.445250E+02    0.405391E+02    0.123338E-01   -0.228101E+02    0.356565E+02
    0.631518E+02    0.393790E+02    0.126971E-01   -0.216381E+02    0.344846E+02
    0.837074E+02    0.376295E+02    0.132874E-01   -0.198808E+02    0.327272E+02
    0.105449E+03    0.352366E+02    0.141898E-01   -0.174923E+02    0.303387E+02
    0.127591E+03    0.322239E+02    0.155164E-01   -0.145532E+02    0.273997E+02
    0.149332E+03    0.286885E+02    0.174286E-01   -0.112280E+02    0.240744E+02
    0.169888E+03    0.248136E+02    0.201502E-01   -0.774757E+01    0.205940E+02
    0.188515E+03    0.208462E+02    0.239851E-01   -0.428584E+01    0.171323E+02
    0.204539E+03    0.170775E+02    0.292783E-01   -0.105492E+01    0.139014E+02
    0.217383E+03    0.138148E+02    0.361931E-01    0.170675E+01    0.111398E+02
    0.226582E+03    0.113422E+02    0.440833E-01    0.378326E+01    0.906396E+01
    0.231805E+03    0.988759E+01    0.505684E-01    0.500076E+01    0.784827E+01
    0.233112E+03    0.951825E+01    0.525306E-01    0.530971E+01    0.754022E+01
    0.233419E+03    0.943125E+01    0.530152E-01    0.538248E+01    0.746771E+01
    0.233966E+03    0.927591E+01    0.539031E-01    0.551238E+01    0.733832E+01
    0.234743E+03    0.905443E+01    0.552216E-01    0.569766E+01    0.715387E+01
    0.235740E+03    0.876985E+01    0.570135E-01    0.593580E+01    0.691705E+01
    0.236938E+03    0.842625E+01    0.593383E-01    0.622351E+01    0.663139E+01
    0.238318E+03    0.802889E+01    0.622751E-01    0.655675E+01    0.630132E+01
    0.239858E+03    0.758407E+01    0.659277E-01    0.693077E+01    0.593225E+01
    0.241533E+03    0.709945E+01    0.704280E-01    0.734015E+01    0.553061E+01
    0.243314E+03    0.658420E+01    0.759394E-01    0.777879E+01    0.510414E+01
    0.245173E+03    0.604936E+01    0.826533E-01    0.823995E+01    0.466198E+01
    0.247079E+03    0.550771E+01    0.907818E-01    0.871637E+01    0.421490E+01
    0.249001E+03    0.497397E+01    0.100523E+00    0.920035E+01    0.377524E+01
    0.250906E+03    0.446440E+01    0.111997E+00    0.968397E+01    0.335663E+01
    0.252765E+03    0.399588E+01    0.125129E+00    0.101591E+02    0.297313E+01
    0.254547E+03    0.358461E+01    0.139485E+00    0.106178E+02    0.263772E+01
    0.256221E+03    0.324300E+01    0.154178E+00    0.110518E+02    0.236030E+01
    0.257761E+03    0.297291E+01    0.168185E+00    0.114537E+02    0.214567E+01
    0.259142E+03    0.278546E+01    0.179504E+00    0.118160E+02    0.199247E+01
    0.260340E+03    0.266170E+01    0.187850E+00    0.121321E+02    0.189351E+01
    0.261336E+03    0.259217E+01    0.192888E+00    0.123962E+02    0.183739E+01
    0.262114E+03    0.258001E+01    0.193798E+00    0.126032E+02    0.181095E+01
    0.262661E+03    0.247565E+01    0.201967E+00    0.127490E+02    0.180176E+01
    0.262968E+03    0.307735E+01    0.162477E+00    0.128311E+02    0.180004E+01
    0.263112E+03    0.213280E+01    0.234434E+00    0.128697E+02    0.180010E+01
    0.263419E+03    0.252738E+01    0.197833E+00    0.129519E+02    0.180206E+01
    0.263966E+03    0.249219E+01    0.200626E+00    0.130985E+02    0.181175E+01
    0.264743E+03    0.255519E+01    0.195680E+00    0.133078E+02    0.183924E+01
    0.265740E+03    0.261503E+01    0.191203E+00    0.135768E+02    0.189771E+01
    0.266938E+03    0.272524E+01    0.183470E+00    0.139018E+02    0.200168E+01
    0.268318E+03    0.292800E+01    0.170765E+00    0.142784E+02    0.216459E+01
    0.269858E+03    0.318975E+01    0.156752E+00    0.147011E+02    0.239601E+01
    0.271533E+03    0.354641E+01    0.140988E+00    0.151639E+02    0.269953E+01
    0.273314E+03    0.398692E+01    0.125410E+00    0.156600E+02    0.307185E+01
    0.275173E+03    0.449757E+01    0.111171E+00    0.161820E+02    0.350359E+01
    0.277079E+03    0.506258E+01    0.987639E-01    0.167218E+02    0.398128E+01
    0.279001E+03    0.566331E+01    0.882876E-01    0.172707E+02    0.448962E+01
    0.280906E+03    0.628104E+01    0.796046E-01    0.178201E+02    0.501336E+01
    0.282765E+03    0.689876E+01    0.724768E-01    0.183606E+02    0.553824E+01
    0.284547E+03    0.750117E+01    0.666562E-01    0.188830E+02    0.605133E+01
    0.286221E+03    0.807465E+01    0.619222E-01    0.193782E+02    0.654096E+01
    0.287761E+03    0.860711E+01    0.580915E-01    0.198372E+02    0.699667E+01
    0.289142E+03    0.908786E+01    0.550185E-01    0.202515E+02    0.740905E+01
    0.290340E+03    0.950742E+01    0.525905E-01    0.206134E+02    0.776976E+01
    0.291336E+03    0.985784E+01    0.507210E-01    0.209159E+02    0.807155E+01
    0.292114E+03    0.101324E+02    0.493466E-01    0.211532E+02    0.830835E+01
    0.292661E+03    0.103259E+02    0.484218E-01    0.213205E+02    0.847541E+01
    0.292968E+03    0.104346E+02    0.479174E-01    0.214146E+02    0.856937E+01
    0.293562E+03    0.106458E+02    0.469669E-01    0.215973E+02    0.875193E+01
    0.295789E+03    0.114400E+02    0.437061E-01    0.222863E+02    0.944037E+01
    0.299778E+03    0.128775E+02    0.388274E-01    0.235392E+02    0.106929E+02
    0.305503E+03    0.149724E+02    0.333949E-01    0.253787E+02    0.125323E+02
    0.312925E+03    0.177454E+02    0.281764E-01    0.278354E+02    0.149889E+02
    0.321999E+03    0.212236E+02    0.235587E-01    0.309487E+02    0.181022E+02
    0.332672E+03    0.254391E+02    0.196548E-01    0.347819E+02    0.219354E+02
    0.344892E+03    0.304305E+02    0.164309E-01    0.393967E+02    0.265503E+02
    0.358606E+03    0.362413E+02    0.137964E-01    0.448594E+02    0.320130E+02
    0.373763E+03    0.429206E+02    0.116494E-01    0.512640E+02    0.384176E+02
    0.390320E+03    0.505211E+02    0.989685E-02    0.586479E+02    0.458014E+02
    0.408242E+03    0.591023E+02    0.845991E-02    0.670473E+02    0.542008E+02
    0.427505E+03    0.687300E+02    0.727484E-02    0.764941E+02    0.636476E+02
    0.448095E+03    0.794792E+02    0.629095E-02    0.870181E+02    0.741717E+02
    0.470017E+03    0.914350E+02    0.546836E-02    0.986745E+02    0.858281E+02
    0.493289E+03    0.104696E+03    0.477575E-02    0.111557E+03    0.987109E+02
    0.517951E+03    0.119375E+03    0.418849E-02    0.125796E+03    0.112949E+03
    0.544063E+03    0.135604E+03    0.368721E-02    0.141547E+03    0.128701E+03
    0.571711E+03    0.153536E+03    0.325656E-02    0.158983E+03    0.146137E+03
    0.601008E+03    0.173354E+03    0.288427E-02    0.178268E+03    0.165421E+03
    0.632104E+03    0.195267E+03    0.256060E-02    0.199583E+03    0.186737E+03
    0.665189E+03    0.219526E+03    0.227764E-02    0.223122E+03    0.210276E+03
    0.700506E+03    0.246430E+03    0.202898E-02    0.249049E+03    0.236203E+03
    0.738363E+03    0.276361E+03    0.180923E-02    0.278243E+03    0.265397E+03
    0.779154E+03    0.309809E+03    0.161390E-02    0.311257E+03    0.298410E+03
    0.823388E+03    0.347476E+03    0.143895E-02    0.349328E+03    0.336481E+03
    0.871732E+03    0.390434E+03    0.128063E-02    0.393785E+03    0.380939E+03
    0.925076E+03    0.440278E+03    0.113565E-02    0.446555E+03    0.433708E+03
    0.984645E+03    0.499401E+03    0.100120E-02    0.509417E+03    0.496570E+03
    0.105218E+04    0.571398E+03    0.875046E-03    0.585916E+03    0.573070E+03
    0.113026E+04    0.661703E+03    0.755626E-03    0.681114E+03    0.668267E+03
    0.122298E+04    0.778799E+03    0.642014E-03    0.800371E+03    0.787525E+03
    0.133733E+04    0.936745E+03    0.533763E-03    0.955806E+03    0.942959E+03
    0.148686E+04    0.116317E+04    0.429861E-03    0.117792E+04    0.116508E+04
    0.170381E+04    0.153197E+04    0.326378E-03    0.154487E+04    0.153202E+04
    0.210432E+04    0.234362E+04    0.213345E-03    0.235647E+04    0.234362E+04
