#     k [MeV]       Xi [MeV]       1/2/Xi [MeV-1]     e(k) [MeV]     Xi_qp [MeV]


# rho=   0.01000 temp=   1.00000
    0.538008E+00    0.104814E+02    0.477038E-01   -0.484805E+01    0.900701E+01
    0.281337E+01    0.104769E+02    0.477240E-01   -0.484367E+01    0.900264E+01
    0.682055E+01    0.104549E+02    0.478245E-01   -0.482041E+01    0.897943E+01
    0.124157E+02    0.103931E+02    0.481088E-01   -0.475472E+01    0.891387E+01
    0.193966E+02    0.102653E+02    0.487076E-01   -0.461838E+01    0.877784E+01
    0.275110E+02    0.100461E+02    0.497706E-01   -0.438383E+01    0.854392E+01
    0.364658E+02    0.971725E+01    0.514549E-01   -0.403439E+01    0.819568E+01
    0.459371E+02    0.927075E+01    0.539331E-01   -0.356819E+01    0.773177E+01
    0.555828E+02    0.871516E+01    0.573713E-01   -0.300023E+01    0.716814E+01
    0.650541E+02    0.807458E+01    0.619227E-01   -0.236033E+01    0.653637E+01
    0.740088E+02    0.738689E+01    0.676875E-01   -0.168690E+01    0.587762E+01
    0.821233E+02    0.669990E+01    0.746280E-01   -0.102155E+01    0.523701E+01
    0.891042E+02    0.606685E+01    0.824150E-01   -0.407359E+00    0.466022E+01
    0.946993E+02    0.553947E+01    0.902613E-01    0.111890E+00    0.418905E+01
    0.987065E+02    0.515674E+01    0.969604E-01    0.497854E+00    0.385239E+01
    0.100982E+03    0.493954E+01    0.101224E+00    0.722118E+00    0.366345E+01
    0.101592E+03    0.488157E+01    0.102426E+00    0.782883E+00    0.361322E+01
    0.101899E+03    0.485241E+01    0.103042E+00    0.813543E+00    0.358804E+01
    0.102446E+03    0.480051E+01    0.104156E+00    0.868339E+00    0.354332E+01
    0.103224E+03    0.472711E+01    0.105773E+00    0.946658E+00    0.348006E+01
    0.104220E+03    0.463371E+01    0.107905E+00    0.104759E+01    0.339970E+01
    0.105418E+03    0.452195E+01    0.110572E+00    0.116994E+01    0.330418E+01
    0.106798E+03    0.439517E+01    0.113761E+00    0.131220E+01    0.319586E+01
    0.108339E+03    0.425586E+01    0.117485E+00    0.147258E+01    0.307757E+01
    0.110013E+03    0.410777E+01    0.121721E+00    0.164896E+01    0.295252E+01
    0.111794E+03    0.395537E+01    0.126410E+00    0.183892E+01    0.282426E+01
    0.113653E+03    0.380271E+01    0.131485E+00    0.203972E+01    0.269653E+01
    0.115559E+03    0.365421E+01    0.136829E+00    0.224838E+01    0.257307E+01
    0.117481E+03    0.351415E+01    0.142282E+00    0.246166E+01    0.245742E+01
    0.119387E+03    0.338674E+01    0.147635E+00    0.267618E+01    0.235266E+01
    0.121245E+03    0.327512E+01    0.152666E+00    0.288836E+01    0.226121E+01
    0.123027E+03    0.318122E+01    0.157173E+00    0.309453E+01    0.218461E+01
    0.124701E+03    0.310600E+01    0.160979E+00    0.329094E+01    0.212340E+01
    0.126241E+03    0.304912E+01    0.163982E+00    0.347389E+01    0.207712E+01
    0.127622E+03    0.301046E+01    0.166088E+00    0.363975E+01    0.204435E+01
    0.128820E+03    0.298696E+01    0.167395E+00    0.378519E+01    0.202296E+01
    0.129816E+03    0.297891E+01    0.167846E+00    0.390716E+01    0.201037E+01
    0.130594E+03    0.298550E+01    0.167476E+00    0.400307E+01    0.200393E+01
    0.131141E+03    0.301462E+01    0.165858E+00    0.407085E+01    0.200123E+01
    0.131448E+03    0.307761E+01    0.162464E+00    0.410902E+01    0.200038E+01
    0.131592E+03    0.317129E+01    0.157665E+00    0.412701E+01    0.200015E+01
    0.131899E+03    0.232648E+01    0.214917E+00    0.416532E+01    0.200001E+01
    0.132446E+03    0.285424E+01    0.175178E+00    0.423381E+01    0.200099E+01
    0.133224E+03    0.290261E+01    0.172258E+00    0.433177E+01    0.200510E+01
    0.134220E+03    0.292674E+01    0.170838E+00    0.445814E+01    0.201512E+01
    0.135418E+03    0.295465E+01    0.169225E+00    0.461152E+01    0.203435E+01
    0.136798E+03    0.299334E+01    0.167038E+00    0.479016E+01    0.206642E+01
    0.138339E+03    0.305010E+01    0.163929E+00    0.499196E+01    0.211493E+01
    0.140013E+03    0.312842E+01    0.159825E+00    0.521445E+01    0.218307E+01
    0.141794E+03    0.323148E+01    0.154728E+00    0.545478E+01    0.227323E+01
    0.143653E+03    0.336062E+01    0.148782E+00    0.570974E+01    0.238668E+01
    0.145559E+03    0.351546E+01    0.142229E+00    0.597572E+01    0.252325E+01
    0.147481E+03    0.369373E+01    0.135365E+00    0.624877E+01    0.268122E+01
    0.149387E+03    0.389129E+01    0.128492E+00    0.652453E+01    0.285731E+01
    0.151245E+03    0.410268E+01    0.121871E+00    0.679835E+01    0.304689E+01
    0.153027E+03    0.432138E+01    0.115704E+00    0.706537E+01    0.324427E+01
    0.154701E+03    0.454029E+01    0.110125E+00    0.732062E+01    0.344309E+01
    0.156241E+03    0.475220E+01    0.105214E+00    0.755912E+01    0.363674E+01
    0.157622E+03    0.495007E+01    0.101009E+00    0.777603E+01    0.381863E+01
    0.158820E+03    0.512738E+01    0.975157E-01    0.796674E+01    0.398259E+01
    0.159816E+03    0.527852E+01    0.947236E-01    0.812708E+01    0.412303E+01
    0.160594E+03    0.539903E+01    0.926092E-01    0.825340E+01    0.423520E+01
    0.161141E+03    0.548468E+01    0.911630E-01    0.834280E+01    0.431532E+01
    0.161448E+03    0.553317E+01    0.903641E-01    0.839318E+01    0.436074E+01
    0.161777E+03    0.558562E+01    0.895156E-01    0.844740E+01    0.440982E+01
    0.162872E+03    0.576200E+01    0.867754E-01    0.862904E+01    0.457563E+01
    0.164833E+03    0.608638E+01    0.821506E-01    0.895942E+01    0.488216E+01
    0.167648E+03    0.656822E+01    0.761241E-01    0.944470E+01    0.534166E+01
    0.171298E+03    0.721795E+01    0.692717E-01    0.100937E+02    0.596841E+01
    0.175760E+03    0.804448E+01    0.621544E-01    0.109182E+02    0.677714E+01
    0.181008E+03    0.905574E+01    0.552136E-01    0.119322E+02    0.778201E+01
    0.187017E+03    0.102576E+02    0.487443E-01    0.131508E+02    0.899628E+01
    0.193760E+03    0.116572E+02    0.428920E-01    0.145882E+02    0.104321E+02
    0.201213E+03    0.132640E+02    0.376962E-01    0.162531E+02    0.120965E+02
    0.209355E+03    0.150894E+02    0.331359E-01    0.181464E+02    0.139897E+02
    0.218167E+03    0.171470E+02    0.291596E-01    0.202749E+02    0.161182E+02
    0.227639E+03    0.194532E+02    0.257027E-01    0.226612E+02    0.185045E+02
    0.237763E+03    0.220260E+02    0.227005E-01    0.253365E+02    0.211797E+02
    0.248543E+03    0.248876E+02    0.200903E-01    0.283145E+02    0.241577E+02
    0.259986E+03    0.280632E+02    0.178170E-01    0.315900E+02    0.274332E+02
    0.272113E+03    0.315829E+02    0.158313E-01    0.351957E+02    0.310389E+02
    0.284953E+03    0.354831E+02    0.140912E-01    0.391914E+02    0.350346E+02
    0.298547E+03    0.398069E+02    0.125606E-01    0.435895E+02    0.394327E+02
    0.312953E+03    0.446070E+02    0.112090E-01    0.484200E+02    0.442633E+02
    0.328244E+03    0.499469E+02    0.100106E-01    0.537763E+02    0.496196E+02
    0.344512E+03    0.559051E+02    0.894373E-02    0.597159E+02    0.555591E+02
    0.361878E+03    0.625791E+02    0.798989E-02    0.663551E+02    0.621983E+02
    0.380493E+03    0.700921E+02    0.713347E-02    0.738109E+02    0.696542E+02
    0.400551E+03    0.786026E+02    0.636111E-02    0.822502E+02    0.780935E+02
    0.422302E+03    0.883162E+02    0.566148E-02    0.918786E+02    0.877219E+02
    0.446073E+03    0.995080E+02    0.502472E-02    0.102968E+03    0.988109E+02
    0.472304E+03    0.112554E+03    0.444230E-02    0.115896E+03    0.111740E+03
    0.501595E+03    0.127985E+03    0.390670E-02    0.131192E+03    0.127035E+03
    0.534803E+03    0.146579E+03    0.341113E-02    0.149621E+03    0.145464E+03
    0.573199E+03    0.169533E+03    0.294929E-02    0.172370E+03    0.168213E+03
    0.618790E+03    0.198814E+03    0.251492E-02    0.201421E+03    0.197265E+03
    0.675015E+03    0.237957E+03    0.210122E-02    0.240318E+03    0.236161E+03
    0.748546E+03    0.294199E+03    0.169953E-02    0.296276E+03    0.292119E+03
    0.855221E+03    0.385977E+03    0.129542E-02    0.387582E+03    0.383425E+03
    0.105216E+04    0.587270E+03    0.851397E-03    0.587903E+03    0.583746E+03
