#     k [MeV]       Xi [MeV]       1/2/Xi [MeV-1]     e(k) [MeV]     Xi_qp [MeV]


# rho=   0.02000 temp=   0.90000
    0.719171E+00    0.164663E+02    0.303651E-01   -0.836761E+01    0.147784E+02
    0.376071E+01    0.164586E+02    0.303793E-01   -0.835793E+01    0.147687E+02
    0.911723E+01    0.164196E+02    0.304515E-01   -0.831180E+01    0.147226E+02
    0.165964E+02    0.163098E+02    0.306564E-01   -0.818650E+01    0.145973E+02
    0.259280E+02    0.160847E+02    0.310855E-01   -0.793075E+01    0.143415E+02
    0.367748E+02    0.157009E+02    0.318453E-01   -0.749439E+01    0.139052E+02
    0.487449E+02    0.151209E+02    0.330668E-01   -0.684131E+01    0.132521E+02
    0.614055E+02    0.143294E+02    0.348933E-01   -0.596994E+01    0.123807E+02
    0.742991E+02    0.133370E+02    0.374898E-01   -0.491584E+01    0.113267E+02
    0.869598E+02    0.121784E+02    0.410564E-01   -0.373925E+01    0.101503E+02
    0.989298E+02    0.109159E+02    0.458049E-01   -0.251855E+01    0.893021E+01
    0.109777E+03    0.963029E+01    0.519195E-01   -0.133218E+01    0.774580E+01
    0.119108E+03    0.842062E+01    0.593781E-01   -0.250441E+00    0.666936E+01
    0.126587E+03    0.738593E+01    0.676963E-01    0.658278E+00    0.577181E+01
    0.131944E+03    0.661433E+01    0.755935E-01    0.133407E+01    0.511289E+01
    0.134985E+03    0.616815E+01    0.810615E-01    0.172730E+01    0.473524E+01
    0.135777E+03    0.605151E+01    0.826240E-01    0.183072E+01    0.463688E+01
    0.136084E+03    0.600618E+01    0.832476E-01    0.187094E+01    0.459875E+01
    0.136631E+03    0.592543E+01    0.843820E-01    0.194278E+01    0.453083E+01
    0.137408E+03    0.581073E+01    0.860477E-01    0.204536E+01    0.443428E+01
    0.138405E+03    0.566348E+01    0.882850E-01    0.217739E+01    0.431082E+01
    0.139603E+03    0.548682E+01    0.911274E-01    0.233717E+01    0.416274E+01
    0.140983E+03    0.528375E+01    0.946298E-01    0.252263E+01    0.399295E+01
    0.142523E+03    0.505822E+01    0.988490E-01    0.273132E+01    0.380496E+01
    0.144198E+03    0.481528E+01    0.103836E+00    0.296039E+01    0.360294E+01
    0.145979E+03    0.456074E+01    0.109631E+00    0.320662E+01    0.339171E+01
    0.147838E+03    0.430097E+01    0.116253E+00    0.346642E+01    0.317665E+01
    0.149744E+03    0.404303E+01    0.123670E+00    0.373587E+01    0.296357E+01
    0.151665E+03    0.379418E+01    0.131781E+00    0.401077E+01    0.275844E+01
    0.153571E+03    0.356135E+01    0.140396E+00    0.428670E+01    0.256697E+01
    0.155430E+03    0.335077E+01    0.149219E+00    0.455915E+01    0.239421E+01
    0.157212E+03    0.316736E+01    0.157860E+00    0.482347E+01    0.224406E+01
    0.158886E+03    0.301414E+01    0.165885E+00    0.507501E+01    0.211890E+01
    0.160426E+03    0.289219E+01    0.172879E+00    0.530905E+01    0.201936E+01
    0.161806E+03    0.280082E+01    0.178519E+00    0.552108E+01    0.194426E+01
    0.163005E+03    0.273648E+01    0.182716E+00    0.570683E+01    0.189085E+01
    0.164001E+03    0.268960E+01    0.185901E+00    0.586252E+01    0.185532E+01
    0.164779E+03    0.266736E+01    0.187452E+00    0.598487E+01    0.183347E+01
    0.165326E+03    0.264819E+01    0.188808E+00    0.607129E+01    0.182129E+01
    0.165632E+03    0.263940E+01    0.189437E+00    0.611994E+01    0.181564E+01
    0.165777E+03    0.263744E+01    0.189578E+00    0.614287E+01    0.181327E+01
    0.166084E+03    0.263765E+01    0.189562E+00    0.619169E+01    0.180888E+01
    0.166631E+03    0.263480E+01    0.189768E+00    0.627894E+01    0.180322E+01
    0.167408E+03    0.262810E+01    0.190251E+00    0.640367E+01    0.180001E+01
    0.168405E+03    0.261878E+01    0.190928E+00    0.656447E+01    0.180437E+01
    0.169603E+03    0.263873E+01    0.189485E+00    0.675948E+01    0.182246E+01
    0.170983E+03    0.268500E+01    0.186220E+00    0.698638E+01    0.186094E+01
    0.172523E+03    0.276102E+01    0.181092E+00    0.724240E+01    0.192629E+01
    0.174198E+03    0.287377E+01    0.173988E+00    0.752430E+01    0.202396E+01
    0.175979E+03    0.302752E+01    0.165152E+00    0.782832E+01    0.215758E+01
    0.177838E+03    0.322296E+01    0.155137E+00    0.815021E+01    0.232825E+01
    0.179744E+03    0.345742E+01    0.144617E+00    0.848524E+01    0.253424E+01
    0.181665E+03    0.372563E+01    0.134206E+00    0.882821E+01    0.277103E+01
    0.183571E+03    0.401955E+01    0.124392E+00    0.917359E+01    0.303186E+01
    0.185430E+03    0.432971E+01    0.115481E+00    0.951555E+01    0.330841E+01
    0.187212E+03    0.464558E+01    0.107629E+00    0.984803E+01    0.359150E+01
    0.188886E+03    0.495683E+01    0.100871E+00    0.101649E+02    0.387181E+01
    0.190426E+03    0.525388E+01    0.951677E-01    0.104601E+02    0.414035E+01
    0.191806E+03    0.552774E+01    0.904528E-01    0.107277E+02    0.438882E+01
    0.193005E+03    0.577059E+01    0.866463E-01    0.109623E+02    0.460986E+01
    0.194001E+03    0.597581E+01    0.836707E-01    0.111591E+02    0.479712E+01
    0.194779E+03    0.613804E+01    0.814592E-01    0.113138E+02    0.494539E+01
    0.195326E+03    0.625288E+01    0.799631E-01    0.114230E+02    0.505064E+01
    0.195632E+03    0.631773E+01    0.791423E-01    0.114846E+02    0.511006E+01
    0.196031E+03    0.640226E+01    0.780974E-01    0.115646E+02    0.518754E+01
    0.197420E+03    0.669972E+01    0.746300E-01    0.118458E+02    0.546095E+01
    0.199909E+03    0.724246E+01    0.690373E-01    0.123566E+02    0.596193E+01
    0.203480E+03    0.803997E+01    0.621893E-01    0.131056E+02    0.670273E+01
    0.208110E+03    0.910110E+01    0.549384E-01    0.141041E+02    0.769635E+01
    0.213770E+03    0.104341E+02    0.479197E-01    0.153660E+02    0.895608E+01
    0.220429E+03    0.120484E+02    0.414993E-01    0.169083E+02    0.104977E+02
    0.228052E+03    0.139565E+02    0.358256E-01    0.187528E+02    0.123421E+02
    0.236607E+03    0.161737E+02    0.309144E-01    0.209289E+02    0.145182E+02
    0.246062E+03    0.187174E+02    0.267131E-01    0.234734E+02    0.170626E+02
    0.256391E+03    0.216089E+02    0.231386E-01    0.264200E+02    0.200092E+02
    0.267572E+03    0.248693E+02    0.201051E-01    0.297704E+02    0.233596E+02
    0.279588E+03    0.285260E+02    0.175279E-01    0.335304E+02    0.271196E+02
    0.292433E+03    0.326107E+02    0.153324E-01    0.377436E+02    0.313328E+02
    0.306108E+03    0.371587E+02    0.134558E-01    0.424110E+02    0.360003E+02
    0.320626E+03    0.422111E+02    0.118452E-01    0.475437E+02    0.411329E+02
    0.336011E+03    0.478166E+02    0.104566E-01    0.532096E+02    0.467988E+02
    0.352301E+03    0.540326E+02    0.925367E-02    0.594500E+02    0.530392E+02
    0.369548E+03    0.609272E+02    0.820651E-02    0.663419E+02    0.599311E+02
    0.387825E+03    0.685828E+02    0.729046E-02    0.739584E+02    0.675476E+02
    0.407223E+03    0.770998E+02    0.648510E-02    0.824035E+02    0.759927E+02
    0.427863E+03    0.866027E+02    0.577349E-02    0.918067E+02    0.853960E+02
    0.449895E+03    0.972462E+02    0.514159E-02    0.102326E+03    0.959152E+02
    0.473511E+03    0.109226E+03    0.457766E-02    0.114165E+03    0.107754E+03
    0.498958E+03    0.122794E+03    0.407186E-02    0.127573E+03    0.121162E+03
    0.526553E+03    0.138279E+03    0.361588E-02    0.142886E+03    0.136475E+03
    0.556711E+03    0.156120E+03    0.320266E-02    0.160547E+03    0.154136E+03
    0.589989E+03    0.176920E+03    0.282614E-02    0.181148E+03    0.174737E+03
    0.627150E+03    0.201520E+03    0.248115E-02    0.205530E+03    0.199119E+03
    0.669280E+03    0.231150E+03    0.216310E-02    0.234888E+03    0.228478E+03
    0.717992E+03    0.267676E+03    0.186793E-02    0.271192E+03    0.264781E+03
    0.775832E+03    0.314097E+03    0.159187E-02    0.317777E+03    0.311366E+03
    0.847164E+03    0.375721E+03    0.133077E-02    0.379742E+03    0.373331E+03
    0.940450E+03    0.463636E+03    0.107843E-02    0.469658E+03    0.463247E+03
    0.107579E+04    0.607655E+03    0.822835E-03    0.616749E+03    0.610338E+03
    0.132564E+04    0.928237E+03    0.538656E-03    0.936683E+03    0.930272E+03
