#     k [MeV]       Xi [MeV]       1/2/Xi [MeV-1]     e(k) [MeV]     Xi_qp [MeV]


# rho=   0.04000 temp=   0.10000
    0.947423E+00    0.254044E+02    0.196817E-01   -0.132770E+02    0.227926E+02
    0.495429E+01    0.253906E+02    0.196923E-01   -0.132637E+02    0.227793E+02
    0.120109E+02    0.253231E+02    0.197448E-01   -0.131872E+02    0.227028E+02
    0.218638E+02    0.251361E+02    0.198917E-01   -0.129674E+02    0.224830E+02
    0.341570E+02    0.247518E+02    0.202005E-01   -0.125133E+02    0.220289E+02
    0.484465E+02    0.240912E+02    0.207544E-01   -0.117533E+02    0.212689E+02
    0.642156E+02    0.230904E+02    0.216540E-01   -0.106536E+02    0.201692E+02
    0.808945E+02    0.217216E+02    0.230186E-01   -0.921819E+01    0.187338E+02
    0.978803E+02    0.199985E+02    0.250019E-01   -0.749246E+01    0.170080E+02
    0.114559E+03    0.179800E+02    0.278086E-01   -0.555193E+01    0.150675E+02
    0.130328E+03    0.157713E+02    0.317032E-01   -0.350136E+01    0.130169E+02
    0.144618E+03    0.135152E+02    0.369955E-01   -0.148308E+01    0.109987E+02
    0.156911E+03    0.113782E+02    0.439437E-01    0.368541E+00    0.914704E+01
    0.166764E+03    0.953041E+01    0.524637E-01    0.193446E+01    0.758112E+01
    0.173820E+03    0.813220E+01    0.614839E-01    0.310327E+01    0.641231E+01
    0.177827E+03    0.730953E+01    0.684039E-01    0.378629E+01    0.572928E+01
    0.178847E+03    0.709614E+01    0.704608E-01    0.396236E+01    0.555322E+01
    0.179154E+03    0.703169E+01    0.711067E-01    0.401553E+01    0.550005E+01
    0.179701E+03    0.691642E+01    0.722917E-01    0.411047E+01    0.540510E+01
    0.180479E+03    0.675173E+01    0.740551E-01    0.424601E+01    0.526957E+01
    0.181475E+03    0.654001E+01    0.764525E-01    0.442038E+01    0.509520E+01
    0.182673E+03    0.628433E+01    0.795630E-01    0.463132E+01    0.488426E+01
    0.184053E+03    0.598810E+01    0.834989E-01    0.487603E+01    0.463955E+01
    0.185593E+03    0.565473E+01    0.884216E-01    0.515119E+01    0.436439E+01
    0.187268E+03    0.528811E+01    0.945518E-01    0.545298E+01    0.406260E+01
    0.189049E+03    0.489325E+01    0.102182E+00    0.577704E+01    0.373854E+01
    0.190908E+03    0.447617E+01    0.111703E+00    0.611851E+01    0.339707E+01
    0.192814E+03    0.404341E+01    0.123658E+00    0.647207E+01    0.304351E+01
    0.194736E+03    0.360217E+01    0.138805E+00    0.683205E+01    0.268353E+01
    0.196642E+03    0.315957E+01    0.158249E+00    0.719256E+01    0.232302E+01
    0.198500E+03    0.272333E+01    0.183599E+00    0.754753E+01    0.196805E+01
    0.200282E+03    0.230160E+01    0.217240E+00    0.789084E+01    0.162474E+01
    0.201956E+03    0.190277E+01    0.262775E+00    0.821643E+01    0.129916E+01
    0.203496E+03    0.153696E+01    0.325317E+00    0.851837E+01    0.997307E+00
    0.204877E+03    0.121776E+01    0.410591E+00    0.879104E+01    0.725572E+00
    0.206075E+03    0.963797E+00    0.518781E+00    0.902928E+01    0.493873E+00
    0.207071E+03    0.795162E+00    0.628803E+00    0.922848E+01    0.321577E+00
    0.207849E+03    0.702254E+00    0.711993E+00    0.938473E+01    0.227752E+00
    0.208396E+03    0.839173E+00    0.595825E+00    0.949495E+01    0.200709E+00
    0.208703E+03    0.585401E+00    0.854115E+00    0.955693E+01    0.202842E+00
    0.208847E+03    0.627165E+00    0.797238E+00    0.958613E+01    0.208229E+00
    0.209154E+03    0.679966E+00    0.735331E+00    0.964827E+01    0.228517E+00
    0.209701E+03    0.740275E+00    0.675425E+00    0.975922E+01    0.290353E+00
    0.210479E+03    0.854832E+00    0.584911E+00    0.991761E+01    0.416723E+00
    0.211475E+03    0.104954E+01    0.476397E+00    0.101214E+02    0.608641E+00
    0.212673E+03    0.131920E+01    0.379019E+00    0.103679E+02    0.852627E+00
    0.214053E+03    0.164960E+01    0.303104E+00    0.106538E+02    0.113823E+01
    0.215593E+03    0.202794E+01    0.246555E+00    0.109752E+02    0.145965E+01
    0.217268E+03    0.244466E+01    0.204527E+00    0.113277E+02    0.181217E+01
    0.219049E+03    0.289196E+01    0.172893E+00    0.117063E+02    0.219074E+01
    0.220908E+03    0.336265E+01    0.148692E+00    0.121054E+02    0.258987E+01
    0.222814E+03    0.384899E+01    0.129904E+00    0.125191E+02    0.300353E+01
    0.224736E+03    0.434332E+01    0.115119E+00    0.129409E+02    0.342531E+01
    0.226642E+03    0.483730E+01    0.103363E+00    0.133639E+02    0.384837E+01
    0.228500E+03    0.532209E+01    0.939481E-01    0.137812E+02    0.426560E+01
    0.230282E+03    0.578893E+01    0.863718E-01    0.141853E+02    0.466976E+01
    0.231956E+03    0.623018E+01    0.802545E-01    0.145692E+02    0.505362E+01
    0.233496E+03    0.664218E+01    0.752764E-01    0.149257E+02    0.541012E+01
    0.234877E+03    0.701453E+01    0.712806E-01    0.152481E+02    0.573252E+01
    0.236075E+03    0.733740E+01    0.681440E-01    0.155301E+02    0.601453E+01
    0.237071E+03    0.760583E+01    0.657390E-01    0.157662E+02    0.625057E+01
    0.237849E+03    0.781665E+01    0.639660E-01    0.159515E+02    0.643588E+01
    0.238396E+03    0.796558E+01    0.627700E-01    0.160822E+02    0.656666E+01
    0.238703E+03    0.804952E+01    0.621155E-01    0.161558E+02    0.664025E+01
    0.239188E+03    0.818240E+01    0.611068E-01    0.162724E+02    0.675687E+01
    0.240948E+03    0.866577E+01    0.576983E-01    0.166983E+02    0.718271E+01
    0.244100E+03    0.953833E+01    0.524201E-01    0.174724E+02    0.795681E+01
    0.248624E+03    0.108107E+02    0.462507E-01    0.186087E+02    0.909312E+01
    0.254490E+03    0.124943E+02    0.400182E-01    0.201278E+02    0.106122E+02
    0.261661E+03    0.146056E+02    0.342335E-01    0.220579E+02    0.125423E+02
    0.270096E+03    0.171647E+02    0.291295E-01    0.244351E+02    0.149195E+02
    0.279753E+03    0.201948E+02    0.247589E-01    0.273004E+02    0.177849E+02
    0.290591E+03    0.237232E+02    0.210764E-01    0.306921E+02    0.211766E+02
    0.302569E+03    0.277812E+02    0.179978E-01    0.346662E+02    0.251506E+02
    0.315654E+03    0.324032E+02    0.154306E-01    0.392700E+02    0.297545E+02
    0.329818E+03    0.376265E+02    0.132885E-01    0.444937E+02    0.349781E+02
    0.345040E+03    0.434941E+02    0.114958E-01    0.503984E+02    0.408829E+02
    0.361312E+03    0.500541E+02    0.998920E-02    0.569784E+02    0.474628E+02
    0.378637E+03    0.573614E+02    0.871667E-02    0.642906E+02    0.547751E+02
    0.397028E+03    0.654798E+02    0.763594E-02    0.723665E+02    0.628510E+02
    0.416518E+03    0.744845E+02    0.671280E-02    0.812800E+02    0.717644E+02
    0.437154E+03    0.844642E+02    0.591967E-02    0.911173E+02    0.816017E+02
    0.459004E+03    0.955251E+02    0.523422E-02    0.101990E+03    0.924742E+02
    0.482157E+03    0.107797E+03    0.463837E-02    0.114034E+03    0.104519E+03
    0.506731E+03    0.121438E+03    0.411734E-02    0.127411E+03    0.117895E+03
    0.532878E+03    0.136645E+03    0.365910E-02    0.142320E+03    0.132805E+03
    0.560788E+03    0.153668E+03    0.325376E-02    0.159025E+03    0.149509E+03
    0.590706E+03    0.172819E+03    0.289320E-02    0.177852E+03    0.168336E+03
    0.622943E+03    0.194489E+03    0.257084E-02    0.199229E+03    0.189713E+03
    0.657900E+03    0.219180E+03    0.228123E-02    0.223593E+03    0.214077E+03
    0.696105E+03    0.247537E+03    0.201990E-02    0.251602E+03    0.242087E+03
    0.738263E+03    0.280419E+03    0.178304E-02    0.283956E+03    0.274440E+03
    0.785339E+03    0.319010E+03    0.156735E-02    0.322088E+03    0.312572E+03
    0.838710E+03    0.365083E+03    0.136955E-02    0.367609E+03    0.358094E+03
    0.900420E+03    0.421518E+03    0.118619E-02    0.424404E+03    0.414888E+03
    0.973693E+03    0.493375E+03    0.101343E-02    0.497497E+03    0.487981E+03
    0.106406E+04    0.590272E+03    0.847067E-03    0.597408E+03    0.587892E+03
    0.118224E+04    0.731798E+03    0.683249E-03    0.742878E+03    0.733363E+03
    0.135368E+04    0.964853E+03    0.518214E-03    0.976572E+03    0.967057E+03
    0.167020E+04    0.147495E+04    0.338995E-03    0.148460E+04    0.147508E+04
