#     k [MeV]       Xi [MeV]       1/2/Xi [MeV-1]     e(k) [MeV]     Xi_qp [MeV]


# rho=   0.01500 temp=   0.40000
    0.638873E+00    0.137748E+02    0.362982E-01   -0.651831E+01    0.119956E+02
    0.334081E+01    0.137687E+02    0.363142E-01   -0.651161E+01    0.119889E+02
    0.809926E+01    0.137382E+02    0.363949E-01   -0.647588E+01    0.119531E+02
    0.147433E+02    0.136524E+02    0.366237E-01   -0.637508E+01    0.118523E+02
    0.230330E+02    0.134732E+02    0.371107E-01   -0.616646E+01    0.116437E+02
    0.326688E+02    0.131649E+02    0.379796E-01   -0.581141E+01    0.112887E+02
    0.433023E+02    0.126987E+02    0.393740E-01   -0.528564E+01    0.107629E+02
    0.545493E+02    0.120608E+02    0.414566E-01   -0.458706E+01    0.100643E+02
    0.660033E+02    0.112573E+02    0.444157E-01   -0.374576E+01    0.922303E+01
    0.772504E+02    0.103184E+02    0.484571E-01   -0.281947E+01    0.829673E+01
    0.878839E+02    0.929380E+01    0.537993E-01   -0.186828E+01    0.734555E+01
    0.975196E+02    0.824879E+01    0.606150E-01   -0.949476E+00    0.642674E+01
    0.105809E+03    0.726034E+01    0.688673E-01   -0.116194E+00    0.559347E+01
    0.112453E+03    0.640882E+01    0.780175E-01    0.582271E+00    0.489504E+01
    0.117212E+03    0.576662E+01    0.867058E-01    0.110027E+01    0.437715E+01
    0.119914E+03    0.538982E+01    0.927674E-01    0.140151E+01    0.407606E+01
    0.120625E+03    0.528943E+01    0.945282E-01    0.148169E+01    0.399594E+01
    0.120932E+03    0.524583E+01    0.953138E-01    0.151641E+01    0.396125E+01
    0.121479E+03    0.516773E+01    0.967542E-01    0.157846E+01    0.389926E+01
    0.122256E+03    0.505599E+01    0.988926E-01    0.166712E+01    0.381070E+01
    0.123253E+03    0.491222E+01    0.101787E+00    0.178136E+01    0.369663E+01
    0.124451E+03    0.473722E+01    0.105547E+00    0.191978E+01    0.355846E+01
    0.125831E+03    0.453386E+01    0.110281E+00    0.208070E+01    0.339797E+01
    0.127371E+03    0.430426E+01    0.116164E+00    0.226205E+01    0.321729E+01
    0.129046E+03    0.405136E+01    0.123415E+00    0.246149E+01    0.301898E+01
    0.130827E+03    0.377932E+01    0.132299E+00    0.267633E+01    0.280603E+01
    0.132686E+03    0.349253E+01    0.143163E+00    0.290356E+01    0.258198E+01
    0.134592E+03    0.319614E+01    0.156439E+00    0.313987E+01    0.235099E+01
    0.136514E+03    0.289640E+01    0.172628E+00    0.338162E+01    0.211800E+01
    0.138419E+03    0.260059E+01    0.192264E+00    0.362490E+01    0.188882E+01
    0.140278E+03    0.231667E+01    0.215827E+00    0.386556E+01    0.167008E+01
    0.142060E+03    0.205218E+01    0.243643E+00    0.409931E+01    0.146879E+01
    0.143734E+03    0.181369E+01    0.275681E+00    0.432186E+01    0.129160E+01
    0.145274E+03    0.162052E+01    0.308544E+00    0.452907E+01    0.114365E+01
    0.146655E+03    0.151278E+01    0.330517E+00    0.471692E+01    0.102753E+01
    0.147853E+03    0.136540E+01    0.366194E+00    0.488166E+01    0.942624E+00
    0.148849E+03    0.129898E+01    0.384917E+00    0.501987E+01    0.885331E+00
    0.149627E+03    0.122601E+01    0.407826E+00    0.512859E+01    0.850027E+00
    0.150174E+03    0.134613E+01    0.371436E+00    0.520545E+01    0.830552E+00
    0.150480E+03    0.133238E+01    0.375267E+00    0.524874E+01    0.821643E+00
    0.150625E+03    0.125000E+01    0.399999E+00    0.526915E+01    0.817967E+00
    0.150932E+03    0.105678E+01    0.473136E+00    0.531261E+01    0.811265E+00
    0.151479E+03    0.111883E+01    0.446894E+00    0.539033E+01    0.803147E+00
    0.152256E+03    0.630631E+00    0.792857E+00    0.550153E+01    0.800245E+00
    0.153253E+03    0.125688E+01    0.397811E+00    0.564503E+01    0.811693E+00
    0.154451E+03    0.131381E+01    0.380574E+00    0.581929E+01    0.848157E+00
    0.155831E+03    0.132514E+01    0.377319E+00    0.602232E+01    0.920117E+00
    0.157371E+03    0.147911E+01    0.338041E+00    0.625175E+01    0.103558E+01
    0.159046E+03    0.169498E+01    0.294989E+00    0.650472E+01    0.119801E+01
    0.160827E+03    0.196015E+01    0.255082E+00    0.677798E+01    0.140546E+01
    0.162686E+03    0.226661E+01    0.220594E+00    0.706785E+01    0.165138E+01
    0.164592E+03    0.260227E+01    0.192140E+00    0.737023E+01    0.192659E+01
    0.166514E+03    0.295610E+01    0.169142E+00    0.768057E+01    0.222124E+01
    0.168419E+03    0.331806E+01    0.150690E+00    0.799392E+01    0.252599E+01
    0.170278E+03    0.367849E+01    0.135925E+00    0.830492E+01    0.283247E+01
    0.172060E+03    0.402866E+01    0.124111E+00    0.860796E+01    0.313319E+01
    0.173734E+03    0.436139E+01    0.114642E+00    0.889729E+01    0.342135E+01
    0.175274E+03    0.467000E+01    0.107066E+00    0.916727E+01    0.369073E+01
    0.176655E+03    0.494847E+01    0.101041E+00    0.941245E+01    0.393560E+01
    0.177853E+03    0.519151E+01    0.963112E-01    0.962771E+01    0.415070E+01
    0.178849E+03    0.539460E+01    0.926853E-01    0.980844E+01    0.433134E+01
    0.179627E+03    0.555355E+01    0.900326E-01    0.995068E+01    0.447354E+01
    0.180174E+03    0.566576E+01    0.882494E-01    0.100513E+02    0.457409E+01
    0.180480E+03    0.572876E+01    0.872789E-01    0.101079E+02    0.463073E+01
    0.180848E+03    0.580427E+01    0.861435E-01    0.101760E+02    0.469880E+01
    0.182107E+03    0.606405E+01    0.824531E-01    0.104108E+02    0.493354E+01
    0.184362E+03    0.653317E+01    0.765325E-01    0.108379E+02    0.536061E+01
    0.187598E+03    0.721423E+01    0.693074E-01    0.114654E+02    0.598818E+01
    0.191793E+03    0.811163E+01    0.616399E-01    0.123051E+02    0.682783E+01
    0.196922E+03    0.923036E+01    0.541691E-01    0.133711E+02    0.789383E+01
    0.202956E+03    0.105788E+02    0.472645E-01    0.146786E+02    0.920135E+01
    0.209864E+03    0.121662E+02    0.410973E-01    0.162417E+02    0.107644E+02
    0.217615E+03    0.140057E+02    0.356998E-01    0.180735E+02    0.125962E+02
    0.226183E+03    0.161116E+02    0.310335E-01    0.201915E+02    0.147142E+02
    0.235543E+03    0.185016E+02    0.270247E-01    0.226246E+02    0.171474E+02
    0.245674E+03    0.211943E+02    0.235913E-01    0.254049E+02    0.199276E+02
    0.256562E+03    0.242115E+02    0.206514E-01    0.285435E+02    0.230662E+02
    0.268201E+03    0.275785E+02    0.181301E-01    0.320335E+02    0.265562E+02
    0.280593E+03    0.313248E+02    0.159618E-01    0.359060E+02    0.304287E+02
    0.293748E+03    0.354846E+02    0.140906E-01    0.402067E+02    0.347294E+02
    0.307689E+03    0.400981E+02    0.124694E-01    0.449280E+02    0.394507E+02
    0.322450E+03    0.452134E+02    0.110587E-01    0.501088E+02    0.446315E+02
    0.338078E+03    0.508872E+02    0.982566E-02    0.558202E+02    0.503430E+02
    0.354639E+03    0.571872E+02    0.874322E-02    0.621198E+02    0.566426E+02
    0.372217E+03    0.641968E+02    0.778855E-02    0.690968E+02    0.636196E+02
    0.390919E+03    0.720184E+02    0.694267E-02    0.768592E+02    0.713820E+02
    0.410883E+03    0.807798E+02    0.618966E-02    0.855391E+02    0.800618E+02
    0.432282E+03    0.906432E+02    0.551613E-02    0.953099E+02    0.898326E+02
    0.455340E+03    0.101817E+03    0.491079E-02    0.106386E+03    0.100909E+03
    0.480345E+03    0.114572E+03    0.436408E-02    0.119041E+03    0.113564E+03
    0.507672E+03    0.129270E+03    0.386786E-02    0.133630E+03    0.128152E+03
    0.537826E+03    0.146408E+03    0.341512E-02    0.150645E+03    0.145168E+03
    0.571499E+03    0.166682E+03    0.299972E-02    0.170775E+03    0.165298E+03
    0.609675E+03    0.191115E+03    0.261622E-02    0.195027E+03    0.189549E+03
    0.653814E+03    0.221275E+03    0.225963E-02    0.224956E+03    0.219479E+03
    0.706225E+03    0.259718E+03    0.192517E-02    0.263144E+03    0.257667E+03
    0.770861E+03    0.310970E+03    0.160787E-02    0.314353E+03    0.308876E+03
    0.855391E+03    0.384172E+03    0.130150E-02    0.387993E+03    0.382516E+03
    0.978023E+03    0.502822E+03    0.994388E-03    0.508681E+03    0.503203E+03
    0.120442E+04    0.765560E+03    0.653117E-03    0.772641E+03    0.767164E+03
