#     k [MeV]       Xi [MeV]       1/2/Xi [MeV-1]     e(k) [MeV]     Xi_qp [MeV]


# rho=   0.16000 temp=   0.02000
    0.159733E+01    0.732280E+02    0.682799E-02   -0.425388E+02    0.640498E+02
    0.835280E+01    0.731833E+02    0.683216E-02   -0.424955E+02    0.640064E+02
    0.202500E+02    0.729644E+02    0.685266E-02   -0.422586E+02    0.637695E+02
    0.368617E+02    0.723411E+02    0.691170E-02   -0.416001E+02    0.631111E+02
    0.575878E+02    0.710563E+02    0.703667E-02   -0.402686E+02    0.617796E+02
    0.816794E+02    0.688520E+02    0.726195E-02   -0.380481E+02    0.595591E+02
    0.108266E+03    0.655351E+02    0.762950E-02   -0.348215E+02    0.563324E+02
    0.136386E+03    0.610137E+02    0.819488E-02   -0.305435E+02    0.520545E+02
    0.165023E+03    0.553344E+02    0.903598E-02   -0.252954E+02    0.468064E+02
    0.193144E+03    0.486961E+02    0.102678E-01   -0.193223E+02    0.408332E+02
    0.219730E+03    0.414448E+02    0.120642E-01   -0.129655E+02    0.344765E+02
    0.243821E+03    0.340465E+02    0.146858E-01   -0.654374E+01    0.280547E+02
    0.264548E+03    0.270423E+02    0.184896E-01   -0.550189E+00    0.220611E+02
    0.281159E+03    0.209851E+02    0.238264E-01    0.448813E+01    0.170228E+02
    0.293056E+03    0.163950E+02    0.304971E-01    0.827290E+01    0.132380E+02
    0.299812E+03    0.136921E+02    0.365173E-01    0.104954E+02    0.110156E+02
    0.301481E+03    0.130125E+02    0.384245E-01    0.110535E+02    0.104574E+02
    0.301788E+03    0.128873E+02    0.387980E-01    0.111565E+02    0.103544E+02
    0.302335E+03    0.126637E+02    0.394830E-01    0.113404E+02    0.101706E+02
    0.303113E+03    0.123447E+02    0.405031E-01    0.116026E+02    0.990836E+01
    0.304109E+03    0.119343E+02    0.418961E-01    0.119396E+02    0.957136E+01
    0.305307E+03    0.114383E+02    0.437126E-01    0.123466E+02    0.916432E+01
    0.306688E+03    0.108650E+02    0.460193E-01    0.128179E+02    0.869307E+01
    0.308228E+03    0.102202E+02    0.489225E-01    0.133464E+02    0.816457E+01
    0.309902E+03    0.951573E+01    0.525446E-01    0.139241E+02    0.758681E+01
    0.311684E+03    0.876066E+01    0.570733E-01    0.145422E+02    0.696873E+01
    0.313542E+03    0.796646E+01    0.627632E-01    0.151909E+02    0.632009E+01
    0.315448E+03    0.714560E+01    0.699732E-01    0.158596E+02    0.565132E+01
    0.317370E+03    0.630948E+01    0.792458E-01    0.165376E+02    0.497337E+01
    0.319276E+03    0.547596E+01    0.913082E-01    0.172134E+02    0.429755E+01
    0.321135E+03    0.465388E+01    0.107437E+00    0.178757E+02    0.363530E+01
    0.322916E+03    0.385885E+01    0.129572E+00    0.185130E+02    0.299792E+01
    0.324591E+03    0.310501E+01    0.161030E+00    0.191146E+02    0.239631E+01
    0.326131E+03    0.240563E+01    0.207846E+00    0.196702E+02    0.184080E+01
    0.327511E+03    0.177331E+01    0.281958E+00    0.201699E+02    0.134102E+01
    0.328709E+03    0.122000E+01    0.409836E+00    0.206052E+02    0.905775E+00
    0.329705E+03    0.757444E+00    0.660115E+00    0.209681E+02    0.542816E+00
    0.330483E+03    0.396165E+00    0.126210E+01    0.212523E+02    0.258699E+00
    0.331030E+03    0.145185E+00    0.344387E+01    0.214524E+02    0.652086E-01
    0.331337E+03    0.985123E-01    0.507551E+01    0.215648E+02    0.616681E-01
    0.331481E+03    0.178065E+00    0.280797E+01    0.216177E+02    0.107812E+00
    0.331788E+03    0.328478E+00    0.152217E+01    0.217303E+02    0.219379E+00
    0.332335E+03    0.585920E+00    0.853359E+00    0.219312E+02    0.420243E+00
    0.333113E+03    0.949875E+00    0.526385E+00    0.222175E+02    0.706570E+00
    0.334109E+03    0.141509E+01    0.353334E+00    0.225852E+02    0.107424E+01
    0.335307E+03    0.197420E+01    0.253267E+00    0.230289E+02    0.151795E+01
    0.336688E+03    0.261791E+01    0.190992E+00    0.235422E+02    0.203120E+01
    0.338228E+03    0.333631E+01    0.149866E+00    0.241173E+02    0.260639E+01
    0.339902E+03    0.411829E+01    0.121410E+00    0.247458E+02    0.323487E+01
    0.341684E+03    0.495183E+01    0.100973E+00    0.254180E+02    0.390703E+01
    0.343542E+03    0.582327E+01    0.858624E-01    0.261234E+02    0.461246E+01
    0.345448E+03    0.671762E+01    0.744312E-01    0.268510E+02    0.534001E+01
    0.347370E+03    0.762647E+01    0.655611E-01    0.275890E+02    0.607805E+01
    0.349276E+03    0.852651E+01    0.586406E-01    0.283256E+02    0.681461E+01
    0.351135E+03    0.940748E+01    0.531492E-01    0.290485E+02    0.753755E+01
    0.352916E+03    0.102565E+02    0.487497E-01    0.297457E+02    0.823479E+01
    0.354591E+03    0.110551E+02    0.452281E-01    0.304053E+02    0.889439E+01
    0.356131E+03    0.117937E+02    0.423957E-01    0.310157E+02    0.950472E+01
    0.357511E+03    0.124561E+02    0.401410E-01    0.315657E+02    0.100548E+02
    0.358709E+03    0.130336E+02    0.383623E-01    0.320454E+02    0.105345E+02
    0.359705E+03    0.135146E+02    0.369971E-01    0.324459E+02    0.109349E+02
    0.360483E+03    0.138905E+02    0.359958E-01    0.327596E+02    0.112487E+02
    0.361030E+03    0.141554E+02    0.353221E-01    0.329807E+02    0.114698E+02
    0.361337E+03    0.143043E+02    0.349546E-01    0.331050E+02    0.115940E+02
    0.362070E+03    0.146601E+02    0.341062E-01    0.334023E+02    0.118914E+02
    0.364885E+03    0.160311E+02    0.311894E-01    0.345517E+02    0.130408E+02
    0.369929E+03    0.185070E+02    0.270169E-01    0.366383E+02    0.151273E+02
    0.377166E+03    0.221076E+02    0.226167E-01    0.396888E+02    0.181779E+02
    0.386549E+03    0.268606E+02    0.186147E-01    0.437430E+02    0.222321E+02
    0.398020E+03    0.328035E+02    0.152423E-01    0.488682E+02    0.273573E+02
    0.411514E+03    0.399814E+02    0.125058E-01    0.551243E+02    0.336133E+02
    0.426963E+03    0.484512E+02    0.103197E-01    0.626228E+02    0.411118E+02
    0.444300E+03    0.582734E+02    0.858024E-02    0.714735E+02    0.499625E+02
    0.463462E+03    0.695126E+02    0.719294E-02    0.817848E+02    0.602739E+02
    0.484394E+03    0.822408E+02    0.607971E-02    0.936424E+02    0.721314E+02
    0.507052E+03    0.965250E+02    0.518000E-02    0.107083E+03    0.855720E+02
    0.531403E+03    0.112434E+03    0.444706E-02    0.122123E+03    0.100612E+03
    0.557434E+03    0.130033E+03    0.384519E-02    0.138756E+03    0.117245E+03
    0.585148E+03    0.149383E+03    0.334709E-02    0.157005E+03    0.135494E+03
    0.614570E+03    0.170557E+03    0.293157E-02    0.176937E+03    0.155426E+03
    0.645748E+03    0.193630E+03    0.258225E-02    0.198710E+03    0.177199E+03
    0.678760E+03    0.218707E+03    0.228616E-02    0.222632E+03    0.201121E+03
    0.713712E+03    0.245947E+03    0.203296E-02    0.249114E+03    0.227603E+03
    0.750750E+03    0.275599E+03    0.181423E-02    0.278517E+03    0.257006E+03
    0.790063E+03    0.308021E+03    0.162327E-02    0.311554E+03    0.290043E+03
    0.831890E+03    0.343742E+03    0.145458E-02    0.348835E+03    0.327324E+03
    0.876538E+03    0.383494E+03    0.130380E-02    0.390895E+03    0.369384E+03
    0.924398E+03    0.428220E+03    0.116762E-02    0.438867E+03    0.417356E+03
    0.975968E+03    0.479135E+03    0.104355E-02    0.493715E+03    0.472204E+03
    0.103189E+04    0.537792E+03    0.929728E-03    0.557264E+03    0.535753E+03
    0.109301E+04    0.606195E+03    0.824817E-03    0.630340E+03    0.608829E+03
    0.116045E+04    0.687126E+03    0.727668E-03    0.714985E+03    0.693474E+03
    0.123576E+04    0.784279E+03    0.637528E-03    0.815007E+03    0.793496E+03
    0.132113E+04    0.902637E+03    0.553932E-03    0.931870E+03    0.910359E+03
    0.141985E+04    0.104907E+04    0.476613E-03    0.107573E+04    0.105421E+04
    0.153707E+04    0.123516E+04    0.404807E-03    0.125878E+04    0.123726E+04
    0.168162E+04    0.148327E+04    0.337094E-03    0.150510E+04    0.148359E+04
    0.187067E+04    0.184072E+04    0.271633E-03    0.186226E+04    0.184075E+04
    0.214494E+04    0.242682E+04    0.206031E-03    0.244833E+04    0.242682E+04
    0.265127E+04    0.371915E+04    0.134439E-03    0.374066E+04    0.371915E+04
