#     k [MeV]       Xi [MeV]       1/2/Xi [MeV-1]     e(k) [MeV]     Xi_qp [MeV]


# rho=   0.01500 temp=   0.30000
    0.638873E+00    0.137181E+02    0.364481E-01   -0.648876E+01    0.119979E+02
    0.334081E+01    0.137122E+02    0.364640E-01   -0.648191E+01    0.119911E+02
    0.809926E+01    0.136824E+02    0.365434E-01   -0.644670E+01    0.119558E+02
    0.147433E+02    0.135981E+02    0.367697E-01   -0.634833E+01    0.118575E+02
    0.230330E+02    0.134200E+02    0.372579E-01   -0.614195E+01    0.116511E+02
    0.326688E+02    0.131117E+02    0.381340E-01   -0.578621E+01    0.112954E+02
    0.433023E+02    0.126449E+02    0.395415E-01   -0.525736E+01    0.107665E+02
    0.545493E+02    0.120087E+02    0.416364E-01   -0.455866E+01    0.100678E+02
    0.660033E+02    0.112085E+02    0.446089E-01   -0.372023E+01    0.922937E+01
    0.772504E+02    0.102733E+02    0.486700E-01   -0.279600E+01    0.830514E+01
    0.878839E+02    0.925424E+01    0.540293E-01   -0.184669E+01    0.735583E+01
    0.975196E+02    0.821556E+01    0.608602E-01   -0.927086E+00    0.643622E+01
    0.105809E+03    0.723350E+01    0.691228E-01   -0.902213E-01    0.559936E+01
    0.112453E+03    0.638734E+01    0.782798E-01    0.613755E+00    0.489538E+01
    0.117212E+03    0.575017E+01    0.869540E-01    0.113734E+01    0.437181E+01
    0.119914E+03    0.537651E+01    0.929971E-01    0.144235E+01    0.406680E+01
    0.120625E+03    0.527683E+01    0.947538E-01    0.152358E+01    0.398557E+01
    0.120932E+03    0.523350E+01    0.955383E-01    0.155877E+01    0.395038E+01
    0.121479E+03    0.515598E+01    0.969748E-01    0.162166E+01    0.388750E+01
    0.122256E+03    0.504525E+01    0.991032E-01    0.171155E+01    0.379761E+01
    0.123253E+03    0.490227E+01    0.101994E+00    0.182740E+01    0.368178E+01
    0.124451E+03    0.472862E+01    0.105739E+00    0.196784E+01    0.354136E+01
    0.125831E+03    0.452627E+01    0.110466E+00    0.213115E+01    0.337807E+01
    0.127371E+03    0.429794E+01    0.116335E+00    0.231531E+01    0.319398E+01
    0.129046E+03    0.404638E+01    0.123567E+00    0.251793E+01    0.299149E+01
    0.130827E+03    0.377512E+01    0.132446E+00    0.273626E+01    0.277341E+01
    0.132686E+03    0.348838E+01    0.143333E+00    0.296720E+01    0.254300E+01
    0.134592E+03    0.319115E+01    0.156683E+00    0.320730E+01    0.230398E+01
    0.136514E+03    0.288906E+01    0.173067E+00    0.345282E+01    0.206067E+01
    0.138419E+03    0.258870E+01    0.193147E+00    0.369977E+01    0.181808E+01
    0.140278E+03    0.229790E+01    0.217590E+00    0.394400E+01    0.158221E+01
    0.142060E+03    0.202575E+01    0.246823E+00    0.418120E+01    0.136008E+01
    0.143734E+03    0.178190E+01    0.280600E+00    0.440707E+01    0.115948E+01
    0.145274E+03    0.157438E+01    0.317586E+00    0.461737E+01    0.987957E+00
    0.146655E+03    0.140877E+01    0.354920E+00    0.480802E+01    0.851076E+00
    0.147853E+03    0.129478E+01    0.386167E+00    0.497519E+01    0.750613E+00
    0.148849E+03    0.120907E+01    0.413542E+00    0.511540E+01    0.683753E+00
    0.149627E+03    0.117616E+01    0.425110E+00    0.522567E+01    0.643991E+00
    0.150174E+03    0.113233E+01    0.441566E+00    0.530361E+01    0.623287E+00
    0.150480E+03    0.111331E+01    0.449111E+00    0.534750E+01    0.614445E+00
    0.150625E+03    0.111172E+01    0.449752E+00    0.536819E+01    0.610997E+00
    0.150932E+03    0.113112E+01    0.442040E+00    0.541224E+01    0.605207E+00
    0.151479E+03    0.134935E+01    0.370547E+00    0.549102E+01    0.600182E+00
    0.152256E+03    0.114621E+01    0.436219E+00    0.560370E+01    0.604959E+00
    0.153253E+03    0.113208E+01    0.441664E+00    0.574906E+01    0.631645E+00
    0.154451E+03    0.121387E+01    0.411906E+00    0.592550E+01    0.693353E+00
    0.155831E+03    0.133785E+01    0.373733E+00    0.613097E+01    0.800859E+00
    0.157371E+03    0.151686E+01    0.329629E+00    0.636300E+01    0.959130E+00
    0.159046E+03    0.175372E+01    0.285109E+00    0.661864E+01    0.116585E+01
    0.160827E+03    0.203914E+01    0.245201E+00    0.689455E+01    0.141304E+01
    0.162686E+03    0.236064E+01    0.211807E+00    0.718694E+01    0.169035E+01
    0.164592E+03    0.270582E+01    0.184787E+00    0.749162E+01    0.198784E+01
    0.166514E+03    0.306385E+01    0.163194E+00    0.780396E+01    0.229701E+01
    0.168419E+03    0.342541E+01    0.145968E+00    0.811894E+01    0.261067E+01
    0.170278E+03    0.378298E+01    0.132171E+00    0.843117E+01    0.292238E+01
    0.172060E+03    0.412931E+01    0.121086E+00    0.873504E+01    0.322603E+01
    0.173734E+03    0.445777E+01    0.112164E+00    0.902484E+01    0.351576E+01
    0.175274E+03    0.476215E+01    0.104995E+00    0.929500E+01    0.378589E+01
    0.176655E+03    0.503672E+01    0.992710E-01    0.954014E+01    0.403101E+01
    0.177853E+03    0.527631E+01    0.947632E-01    0.975523E+01    0.424610E+01
    0.178849E+03    0.547641E+01    0.913007E-01    0.993572E+01    0.442659E+01
    0.179627E+03    0.563344E+01    0.887556E-01    0.100777E+02    0.456859E+01
    0.180174E+03    0.574398E+01    0.870477E-01    0.101781E+02    0.466896E+01
    0.180480E+03    0.580625E+01    0.861140E-01    0.102346E+02    0.472550E+01
    0.180848E+03    0.588099E+01    0.850198E-01    0.103026E+02    0.479341E+01
    0.182107E+03    0.613772E+01    0.814635E-01    0.105367E+02    0.502756E+01
    0.184362E+03    0.660175E+01    0.757375E-01    0.109623E+02    0.545318E+01
    0.187598E+03    0.727653E+01    0.687140E-01    0.115869E+02    0.607778E+01
    0.191793E+03    0.816592E+01    0.612301E-01    0.124211E+02    0.691195E+01
    0.196922E+03    0.927612E+01    0.539019E-01    0.134778E+02    0.796871E+01
    0.202956E+03    0.106164E+02    0.470971E-01    0.147713E+02    0.926219E+01
    0.209864E+03    0.121963E+02    0.409960E-01    0.163160E+02    0.108069E+02
    0.217615E+03    0.140292E+02    0.356399E-01    0.181277E+02    0.126186E+02
    0.226183E+03    0.161292E+02    0.309996E-01    0.202272E+02    0.147180E+02
    0.235543E+03    0.185136E+02    0.270071E-01    0.226452E+02    0.171360E+02
    0.245674E+03    0.212021E+02    0.235826E-01    0.254148E+02    0.199057E+02
    0.256562E+03    0.242162E+02    0.206474E-01    0.285460E+02    0.230369E+02
    0.268201E+03    0.275808E+02    0.181286E-01    0.320288E+02    0.265197E+02
    0.280593E+03    0.313256E+02    0.159614E-01    0.358947E+02    0.303855E+02
    0.293748E+03    0.354849E+02    0.140905E-01    0.401885E+02    0.346794E+02
    0.307689E+03    0.400987E+02    0.124692E-01    0.449013E+02    0.393922E+02
    0.322450E+03    0.452155E+02    0.110582E-01    0.500746E+02    0.445655E+02
    0.338078E+03    0.508920E+02    0.982473E-02    0.557844E+02    0.502753E+02
    0.354639E+03    0.571960E+02    0.874186E-02    0.620900E+02    0.565809E+02
    0.372217E+03    0.642107E+02    0.778687E-02    0.690802E+02    0.635711E+02
    0.390919E+03    0.720379E+02    0.694079E-02    0.768601E+02    0.713509E+02
    0.410883E+03    0.808050E+02    0.618773E-02    0.855564E+02    0.800473E+02
    0.432282E+03    0.906730E+02    0.551432E-02    0.953374E+02    0.898283E+02
    0.455340E+03    0.101849E+03    0.490924E-02    0.106414E+03    0.100905E+03
    0.480345E+03    0.114602E+03    0.436292E-02    0.119061E+03    0.113552E+03
    0.507672E+03    0.129294E+03    0.386716E-02    0.133634E+03    0.128125E+03
    0.537826E+03    0.146418E+03    0.341488E-02    0.150623E+03    0.145114E+03
    0.571499E+03    0.166673E+03    0.299988E-02    0.170716E+03    0.165207E+03
    0.609675E+03    0.191085E+03    0.261664E-02    0.194927E+03    0.189417E+03
    0.653814E+03    0.221230E+03    0.226009E-02    0.224827E+03    0.219318E+03
    0.706225E+03    0.259670E+03    0.192552E-02    0.263019E+03    0.257510E+03
    0.770861E+03    0.310927E+03    0.160809E-02    0.314307E+03    0.308798E+03
    0.855391E+03    0.384114E+03    0.130170E-02    0.387946E+03    0.382437E+03
    0.978023E+03    0.502764E+03    0.994503E-03    0.508770E+03    0.503261E+03
    0.120442E+04    0.765527E+03    0.653144E-03    0.772561E+03    0.767051E+03
