#     k [MeV]       Xi [MeV]       1/2/Xi [MeV-1]     e(k) [MeV]     Xi_qp [MeV]


# rho=   0.01500 temp=   0.40000
    0.638873E+00    0.137247E+02    0.364306E-01   -0.674248E+01    0.122015E+02
    0.334081E+01    0.137187E+02    0.364467E-01   -0.673571E+01    0.121947E+02
    0.809926E+01    0.136883E+02    0.365277E-01   -0.670002E+01    0.121590E+02
    0.147433E+02    0.136028E+02    0.367571E-01   -0.659982E+01    0.120588E+02
    0.230330E+02    0.134246E+02    0.372452E-01   -0.639410E+01    0.118531E+02
    0.326688E+02    0.131183E+02    0.381148E-01   -0.604580E+01    0.115048E+02
    0.433023E+02    0.126561E+02    0.395065E-01   -0.553155E+01    0.109906E+02
    0.545493E+02    0.120245E+02    0.415817E-01   -0.484880E+01    0.103078E+02
    0.660033E+02    0.112288E+02    0.445284E-01   -0.401872E+01    0.947774E+01
    0.772504E+02    0.102983E+02    0.485515E-01   -0.308952E+01    0.854854E+01
    0.878839E+02    0.928501E+01    0.538502E-01   -0.212044E+01    0.757946E+01
    0.975196E+02    0.825346E+01    0.605807E-01   -0.117120E+01    0.663021E+01
    0.105809E+03    0.727900E+01    0.686907E-01   -0.301712E+00    0.576073E+01
    0.112453E+03    0.644033E+01    0.776358E-01    0.431075E+00    0.502798E+01
    0.117212E+03    0.580895E+01    0.860740E-01    0.976217E+00    0.448292E+01
    0.119914E+03    0.543917E+01    0.919257E-01    0.129357E+01    0.416570E+01
    0.120625E+03    0.534042E+01    0.936256E-01    0.137805E+01    0.408127E+01
    0.120932E+03    0.529764E+01    0.943817E-01    0.141463E+01    0.404471E+01
    0.121479E+03    0.522133E+01    0.957610E-01    0.148001E+01    0.397939E+01
    0.122256E+03    0.511206E+01    0.978080E-01    0.157342E+01    0.388607E+01
    0.123253E+03    0.497110E+01    0.100581E+00    0.169377E+01    0.376586E+01
    0.124451E+03    0.480037E+01    0.104159E+00    0.183959E+01    0.362027E+01
    0.125831E+03    0.460189E+01    0.108651E+00    0.200907E+01    0.345118E+01
    0.127371E+03    0.437816E+01    0.114203E+00    0.220003E+01    0.326087E+01
    0.129046E+03    0.413285E+01    0.120982E+00    0.240994E+01    0.305206E+01
    0.130827E+03    0.386986E+01    0.129204E+00    0.263592E+01    0.282796E+01
    0.132686E+03    0.359397E+01    0.139122E+00    0.287476E+01    0.259235E+01
    0.134592E+03    0.331087E+01    0.151018E+00    0.312291E+01    0.234973E+01
    0.136514E+03    0.302727E+01    0.165165E+00    0.337652E+01    0.210545E+01
    0.138419E+03    0.275086E+01    0.181761E+00    0.363144E+01    0.186587E+01
    0.140278E+03    0.249010E+01    0.200795E+00    0.388332E+01    0.163825E+01
    0.142060E+03    0.225360E+01    0.221868E+00    0.412771E+01    0.143033E+01
    0.143734E+03    0.204904E+01    0.244017E+00    0.436015E+01    0.124942E+01
    0.145274E+03    0.188185E+01    0.265697E+00    0.457629E+01    0.110104E+01
    0.146655E+03    0.175402E+01    0.285060E+00    0.477201E+01    0.987623E+00
    0.147853E+03    0.166388E+01    0.300502E+00    0.494341E+01    0.907819E+00
    0.148849E+03    0.160533E+01    0.311462E+00    0.508703E+01    0.856842E+00
    0.149627E+03    0.157293E+01    0.317878E+00    0.519988E+01    0.827785E+00
    0.150174E+03    0.155656E+01    0.321221E+00    0.527959E+01    0.813369E+00
    0.150480E+03    0.155051E+01    0.322474E+00    0.532446E+01    0.807530E+00
    0.150625E+03    0.154899E+01    0.322791E+00    0.534561E+01    0.805352E+00
    0.150932E+03    0.155233E+01    0.322096E+00    0.539062E+01    0.801948E+00
    0.151479E+03    0.141129E+01    0.354285E+00    0.547108E+01    0.800061E+00
    0.152256E+03    0.152137E+01    0.328651E+00    0.558608E+01    0.806716E+00
    0.153253E+03    0.154618E+01    0.323378E+00    0.573430E+01    0.831328E+00
    0.154451E+03    0.159882E+01    0.312731E+00    0.591398E+01    0.884442E+00
    0.155831E+03    0.168996E+01    0.295866E+00    0.612293E+01    0.975743E+00
    0.157371E+03    0.182879E+01    0.273404E+00    0.635850E+01    0.111174E+01
    0.159046E+03    0.201892E+01    0.247658E+00    0.661759E+01    0.129401E+01
    0.160827E+03    0.225792E+01    0.221443E+00    0.689669E+01    0.151893E+01
    0.162686E+03    0.253856E+01    0.196962E+00    0.719187E+01    0.177900E+01
    0.164592E+03    0.285083E+01    0.175388E+00    0.749881E+01    0.206483E+01
    0.166514E+03    0.318374E+01    0.157048E+00    0.781280E+01    0.236691E+01
    0.168419E+03    0.352673E+01    0.141774E+00    0.812878E+01    0.267652E+01
    0.170278E+03    0.387057E+01    0.129180E+00    0.844143E+01    0.298586E+01
    0.172060E+03    0.420654E+01    0.118863E+00    0.874519E+01    0.328796E+01
    0.173734E+03    0.452711E+01    0.110446E+00    0.903451E+01    0.357643E+01
    0.175274E+03    0.482544E+01    0.103617E+00    0.930388E+01    0.384538E+01
    0.176655E+03    0.509537E+01    0.981283E-01    0.954803E+01    0.408931E+01
    0.177853E+03    0.533144E+01    0.937833E-01    0.976203E+01    0.430320E+01
    0.178849E+03    0.552892E+01    0.904336E-01    0.994145E+01    0.448256E+01
    0.179627E+03    0.568403E+01    0.879658E-01    0.100825E+02    0.462358E+01
    0.180174E+03    0.579330E+01    0.863067E-01    0.101822E+02    0.472321E+01
    0.180480E+03    0.585486E+01    0.853991E-01    0.102383E+02    0.477932E+01
    0.180848E+03    0.592876E+01    0.843347E-01    0.103057E+02    0.484670E+01
    0.182107E+03    0.618271E+01    0.808706E-01    0.105379E+02    0.507888E+01
    0.184362E+03    0.664202E+01    0.752783E-01    0.109595E+02    0.550054E+01
    0.187598E+03    0.731095E+01    0.683905E-01    0.115777E+02    0.611873E+01
    0.191793E+03    0.819463E+01    0.610155E-01    0.124028E+02    0.694380E+01
    0.196922E+03    0.929961E+01    0.537657E-01    0.134478E+02    0.798881E+01
    0.202956E+03    0.106352E+02    0.470137E-01    0.147279E+02    0.926893E+01
    0.209864E+03    0.122114E+02    0.409452E-01    0.162597E+02    0.108007E+02
    0.217615E+03    0.140412E+02    0.356096E-01    0.180610E+02    0.126020E+02
    0.226183E+03    0.161383E+02    0.309822E-01    0.201528E+02    0.146938E+02
    0.235543E+03    0.185198E+02    0.269981E-01    0.225650E+02    0.171059E+02
    0.245674E+03    0.212047E+02    0.235797E-01    0.253298E+02    0.198707E+02
    0.256562E+03    0.242150E+02    0.206483E-01    0.284562E+02    0.229972E+02
    0.268201E+03    0.275756E+02    0.181320E-01    0.319356E+02    0.264766E+02
    0.280593E+03    0.313161E+02    0.159662E-01    0.357997E+02    0.303407E+02
    0.293748E+03    0.354707E+02    0.140961E-01    0.400895E+02    0.346304E+02
    0.307689E+03    0.400795E+02    0.124752E-01    0.447939E+02    0.393349E+02
    0.322450E+03    0.451907E+02    0.110642E-01    0.499599E+02    0.445009E+02
    0.338078E+03    0.508619E+02    0.983055E-02    0.556571E+02    0.501981E+02
    0.354639E+03    0.571614E+02    0.874717E-02    0.619466E+02    0.564876E+02
    0.372217E+03    0.641731E+02    0.779142E-02    0.689153E+02    0.634562E+02
    0.390919E+03    0.720007E+02    0.694437E-02    0.766707E+02    0.712117E+02
    0.410883E+03    0.807728E+02    0.619021E-02    0.853389E+02    0.798798E+02
    0.432282E+03    0.906521E+02    0.551559E-02    0.950917E+02    0.896327E+02
    0.455340E+03    0.101848E+03    0.490929E-02    0.106144E+03    0.100685E+03
    0.480345E+03    0.114632E+03    0.436177E-02    0.118771E+03    0.113312E+03
    0.507672E+03    0.129369E+03    0.386492E-02    0.133335E+03    0.127876E+03
    0.537826E+03    0.146553E+03    0.341173E-02    0.150331E+03    0.144872E+03
    0.571499E+03    0.166884E+03    0.299609E-02    0.170450E+03    0.164991E+03
    0.609675E+03    0.191385E+03    0.261254E-02    0.194700E+03    0.189241E+03
    0.653814E+03    0.221630E+03    0.225601E-02    0.224665E+03    0.219206E+03
    0.706225E+03    0.260207E+03    0.192155E-02    0.262938E+03    0.257479E+03
    0.770861E+03    0.311768E+03    0.160376E-02    0.314166E+03    0.308707E+03
    0.855391E+03    0.385853E+03    0.129583E-02    0.387792E+03    0.382333E+03
    0.978023E+03    0.506811E+03    0.986560E-03    0.507949E+03    0.502490E+03
    0.120442E+04    0.772515E+03    0.647236E-03    0.772284E+03    0.766825E+03
