#     k [MeV]       Xi [MeV]       1/2/Xi [MeV-1]     e(k) [MeV]     Xi_qp [MeV]


# rho=   0.12000 temp=   0.00000
    0.143673E+01    0.575791E+02    0.868371E-02   -0.335531E+02    0.505683E+02
    0.751300E+01    0.575463E+02    0.868865E-02   -0.335161E+02    0.505313E+02
    0.182140E+02    0.573796E+02    0.871390E-02   -0.333182E+02    0.503334E+02
    0.331556E+02    0.569154E+02    0.878497E-02   -0.327811E+02    0.497963E+02
    0.517979E+02    0.559429E+02    0.893769E-02   -0.316998E+02    0.487151E+02
    0.734673E+02    0.542741E+02    0.921249E-02   -0.299206E+02    0.469359E+02
    0.973805E+02    0.517606E+02    0.965986E-02   -0.273681E+02    0.443834E+02
    0.122673E+03    0.483204E+02    0.103476E-01   -0.240270E+02    0.410422E+02
    0.148432E+03    0.439865E+02    0.113671E-01   -0.199630E+02    0.369782E+02
    0.173725E+03    0.389069E+02    0.128512E-01   -0.153441E+02    0.323594E+02
    0.197638E+03    0.333487E+02    0.149931E-01   -0.104462E+02    0.274615E+02
    0.219307E+03    0.276743E+02    0.180673E-01   -0.560573E+01    0.226210E+02
    0.237950E+03    0.222904E+02    0.224312E-01   -0.103675E+01    0.180520E+02
    0.252891E+03    0.176291E+02    0.283622E-01    0.291642E+01    0.140988E+02
    0.263592E+03    0.141177E+02    0.354166E-01    0.588918E+01    0.111261E+02
    0.269669E+03    0.120511E+02    0.414902E-01    0.761555E+01    0.939968E+01
    0.271177E+03    0.115253E+02    0.433828E-01    0.804791E+01    0.896732E+01
    0.271484E+03    0.114175E+02    0.437924E-01    0.813603E+01    0.887921E+01
    0.272031E+03    0.112245E+02    0.445456E-01    0.829318E+01    0.872205E+01
    0.272809E+03    0.109483E+02    0.456691E-01    0.851709E+01    0.849814E+01
    0.273805E+03    0.105919E+02    0.472057E-01    0.880443E+01    0.821081E+01
    0.275003E+03    0.101596E+02    0.492146E-01    0.915092E+01    0.786431E+01
    0.276384E+03    0.965659E+01    0.517781E-01    0.955142E+01    0.746381E+01
    0.277924E+03    0.908086E+01    0.550609E-01    0.999997E+01    0.701527E+01
    0.279598E+03    0.845060E+01    0.591674E-01    0.104898E+02    0.652540E+01
    0.281380E+03    0.777611E+01    0.642995E-01    0.110135E+02    0.600170E+01
    0.283239E+03    0.706815E+01    0.707399E-01    0.115629E+02    0.545234E+01
    0.285144E+03    0.633814E+01    0.788875E-01    0.121292E+02    0.488606E+01
    0.287066E+03    0.559498E+01    0.893659E-01    0.127033E+02    0.431193E+01
    0.288972E+03    0.485445E+01    0.102998E+00    0.132761E+02    0.373918E+01
    0.290831E+03    0.412866E+01    0.121105E+00    0.138381E+02    0.317713E+01
    0.292612E+03    0.342932E+01    0.145802E+00    0.143801E+02    0.263515E+01
    0.294287E+03    0.276658E+01    0.180728E+00    0.148927E+02    0.212250E+01
    0.295827E+03    0.215185E+01    0.232358E+00    0.153671E+02    0.164813E+01
    0.297207E+03    0.159619E+01    0.313246E+00    0.157947E+02    0.122052E+01
    0.298405E+03    0.110996E+01    0.450466E+00    0.161678E+02    0.847466E+00
    0.299402E+03    0.702842E+00    0.711397E+00    0.164793E+02    0.535897E+00
    0.300179E+03    0.382590E+00    0.130688E+01    0.167235E+02    0.291707E+00
    0.300726E+03    0.157049E+00    0.318372E+01    0.168957E+02    0.119572E+00
    0.301033E+03    0.316122E-01    0.158167E+02    0.169924E+02    0.227898E-01
    0.301177E+03    0.308589E-01    0.162028E+02    0.170380E+02    0.227898E-01
    0.301484E+03    0.157399E+00    0.317664E+01    0.171350E+02    0.119762E+00
    0.302031E+03    0.383824E+00    0.130268E+01    0.173081E+02    0.292875E+00
    0.302809E+03    0.705817E+00    0.708399E+00    0.175551E+02    0.539872E+00
    0.303805E+03    0.111651E+01    0.447822E+00    0.178727E+02    0.857464E+00
    0.305003E+03    0.160908E+01    0.310736E+00    0.182566E+02    0.124139E+01
    0.306384E+03    0.217463E+01    0.229924E+00    0.187016E+02    0.168639E+01
    0.307924E+03    0.280399E+01    0.178317E+00    0.192015E+02    0.218626E+01
    0.309598E+03    0.348781E+01    0.143357E+00    0.197491E+02    0.273391E+01
    0.311380E+03    0.421600E+01    0.118596E+00    0.203366E+02    0.332132E+01
    0.313239E+03    0.497756E+01    0.100451E+00    0.209549E+02    0.393968E+01
    0.315144E+03    0.576015E+01    0.868033E-01    0.215946E+02    0.457936E+01
    0.317066E+03    0.655108E+01    0.763233E-01    0.222453E+02    0.523003E+01
    0.318972E+03    0.733855E+01    0.681333E-01    0.228961E+02    0.588086E+01
    0.320831E+03    0.810895E+01    0.616602E-01    0.235360E+02    0.652076E+01
    0.322612E+03    0.884979E+01    0.564985E-01    0.241538E+02    0.713859E+01
    0.324287E+03    0.954827E+01    0.523655E-01    0.247386E+02    0.772341E+01
    0.325827E+03    0.101933E+02    0.490520E-01    0.252799E+02    0.826469E+01
    0.327207E+03    0.107733E+02    0.464111E-01    0.257678E+02    0.875258E+01
    0.328405E+03    0.112784E+02    0.443327E-01    0.261933E+02    0.917809E+01
    0.329402E+03    0.116994E+02    0.427371E-01    0.265486E+02    0.953333E+01
    0.330179E+03    0.120290E+02    0.415663E-01    0.268269E+02    0.981163E+01
    0.330726E+03    0.122610E+02    0.407797E-01    0.270230E+02    0.100077E+02
    0.331033E+03    0.123914E+02    0.403505E-01    0.271332E+02    0.101180E+02
    0.331705E+03    0.126772E+02    0.394408E-01    0.273749E+02    0.103597E+02
    0.334259E+03    0.137692E+02    0.363130E-01    0.282995E+02    0.112843E+02
    0.338835E+03    0.157399E+02    0.317665E-01    0.299777E+02    0.129625E+02
    0.345402E+03    0.186040E+02    0.268760E-01    0.324384E+02    0.154231E+02
    0.353916E+03    0.223882E+02    0.223331E-01    0.357255E+02    0.187103E+02
    0.364324E+03    0.271262E+02    0.184324E-01    0.398735E+02    0.228582E+02
    0.376568E+03    0.328589E+02    0.152166E-01    0.449417E+02    0.279265E+02
    0.390586E+03    0.396343E+02    0.126153E-01    0.510316E+02    0.340163E+02
    0.406317E+03    0.475070E+02    0.105248E-01    0.582596E+02    0.412444E+02
    0.423704E+03    0.565410E+02    0.884314E-02    0.667031E+02    0.496879E+02
    0.442697E+03    0.668019E+02    0.748481E-02    0.764272E+02    0.594120E+02
    0.463256E+03    0.783633E+02    0.638054E-02    0.874849E+02    0.704696E+02
    0.485351E+03    0.913053E+02    0.547613E-02    0.999243E+02    0.829090E+02
    0.508971E+03    0.105714E+03    0.472976E-02    0.113793E+03    0.967776E+02
    0.534117E+03    0.121681E+03    0.410910E-02    0.129154E+03    0.112139E+03
    0.560813E+03    0.139307E+03    0.358920E-02    0.146086E+03    0.129071E+03
    0.589104E+03    0.158699E+03    0.315063E-02    0.164695E+03    0.147680E+03
    0.619057E+03    0.179979E+03    0.277810E-02    0.185102E+03    0.168087E+03
    0.650772E+03    0.203283E+03    0.245962E-02    0.207466E+03    0.190451E+03
    0.684379E+03    0.228773E+03    0.218557E-02    0.232020E+03    0.215004E+03
    0.720049E+03    0.256661E+03    0.194809E-02    0.258919E+03    0.241903E+03
    0.758001E+03    0.287241E+03    0.174070E-02    0.288922E+03    0.271907E+03
    0.798514E+03    0.320937E+03    0.155794E-02    0.322859E+03    0.305844E+03
    0.841940E+03    0.358388E+03    0.139514E-02    0.361438E+03    0.344423E+03
    0.888732E+03    0.400519E+03    0.124838E-02    0.406120E+03    0.389104E+03
    0.939474E+03    0.448606E+03    0.111456E-02    0.457877E+03    0.440861E+03
    0.994929E+03    0.504355E+03    0.991365E-03    0.518177E+03    0.501162E+03
    0.105612E+04    0.570077E+03    0.877075E-03    0.588525E+03    0.571509E+03
    0.112445E+04    0.648982E+03    0.770438E-03    0.672235E+03    0.655220E+03
    0.120192E+04    0.745575E+03    0.670624E-03    0.770635E+03    0.753620E+03
    0.129150E+04    0.866291E+03    0.577173E-03    0.891562E+03    0.874547E+03
    0.139785E+04    0.102086E+04    0.489781E-03    0.104391E+04    0.102690E+04
    0.152902E+04    0.122664E+04    0.407617E-03    0.124594E+04    0.122892E+04
    0.170056E+04    0.152186E+04    0.328545E-03    0.153925E+04    0.152223E+04
    0.194941E+04    0.200529E+04    0.249340E-03    0.202231E+04    0.200529E+04
    0.240884E+04    0.307084E+04    0.162822E-03    0.308785E+04    0.307084E+04
