#     k [MeV]       Xi [MeV]       1/2/Xi [MeV-1]     e(k) [MeV]     Xi_qp [MeV]


# rho=   0.03000 temp=   0.60000
    0.846253E+00    0.210445E+02    0.237592E-01   -0.111208E+02    0.191268E+02
    0.442525E+01    0.210335E+02    0.237716E-01   -0.111093E+02    0.191153E+02
    0.107283E+02    0.209787E+02    0.238337E-01   -0.110495E+02    0.190555E+02
    0.195291E+02    0.208257E+02    0.240088E-01   -0.108794E+02    0.188854E+02
    0.305096E+02    0.205123E+02    0.243756E-01   -0.105186E+02    0.185246E+02
    0.432731E+02    0.199773E+02    0.250284E-01   -0.990310E+01    0.179091E+02
    0.573584E+02    0.191732E+02    0.260780E-01   -0.900458E+01    0.170105E+02
    0.722562E+02    0.180791E+02    0.276562E-01   -0.783289E+01    0.158389E+02
    0.874282E+02    0.167061E+02    0.299292E-01   -0.641374E+01    0.144197E+02
    0.102326E+03    0.151026E+02    0.331068E-01   -0.480948E+01    0.128155E+02
    0.116411E+03    0.133526E+02    0.374460E-01   -0.312111E+01    0.111271E+02
    0.129175E+03    0.115689E+02    0.432192E-01   -0.146790E+01    0.947388E+01
    0.140155E+03    0.988082E+01    0.506031E-01    0.399467E-01    0.796605E+01
    0.148956E+03    0.842268E+01    0.593635E-01    0.130586E+01    0.670030E+01
    0.155259E+03    0.732001E+01    0.683059E-01    0.224634E+01    0.576041E+01
    0.158838E+03    0.667289E+01    0.749301E-01    0.279338E+01    0.521434E+01
    0.159757E+03    0.650439E+01    0.768711E-01    0.293534E+01    0.507280E+01
    0.160064E+03    0.644797E+01    0.775438E-01    0.298292E+01    0.502538E+01
    0.160610E+03    0.634719E+01    0.787750E-01    0.306787E+01    0.494073E+01
    0.161388E+03    0.620310E+01    0.806049E-01    0.318914E+01    0.481997E+01
    0.162384E+03    0.601794E+01    0.830849E-01    0.334515E+01    0.466476E+01
    0.163583E+03    0.579396E+01    0.862967E-01    0.353386E+01    0.447730E+01
    0.164963E+03    0.553439E+01    0.903443E-01    0.375273E+01    0.426034E+01
    0.166503E+03    0.524326E+01    0.953605E-01    0.399878E+01    0.401728E+01
    0.168178E+03    0.492543E+01    0.101514E+00    0.426855E+01    0.375218E+01
    0.169959E+03    0.458663E+01    0.109013E+00    0.455817E+01    0.346990E+01
    0.171818E+03    0.423372E+01    0.118099E+00    0.486335E+01    0.317619E+01
    0.173724E+03    0.387494E+01    0.129034E+00    0.517946E+01    0.287783E+01
    0.175645E+03    0.351985E+01    0.142051E+00    0.550155E+01    0.258271E+01
    0.177551E+03    0.317915E+01    0.157275E+00    0.582444E+01    0.229966E+01
    0.179410E+03    0.286389E+01    0.174588E+00    0.614275E+01    0.203803E+01
    0.181191E+03    0.258489E+01    0.193432E+00    0.645100E+01    0.180676E+01
    0.182866E+03    0.235041E+01    0.212729E+00    0.674370E+01    0.161304E+01
    0.184406E+03    0.216530E+01    0.230914E+00    0.701546E+01    0.146091E+01
    0.185786E+03    0.203049E+01    0.246246E+00    0.726113E+01    0.135029E+01
    0.186984E+03    0.194067E+01    0.257644E+00    0.747598E+01    0.127703E+01
    0.187981E+03    0.187820E+01    0.266213E+00    0.765575E+01    0.123388E+01
    0.188759E+03    0.186800E+01    0.267666E+00    0.779685E+01    0.121212E+01
    0.189305E+03    0.183230E+01    0.272882E+00    0.789642E+01    0.120333E+01
    0.189612E+03    0.187737E+01    0.266329E+00    0.795245E+01    0.120080E+01
    0.189757E+03    0.200311E+01    0.249612E+00    0.797884E+01    0.120020E+01
    0.190064E+03    0.165191E+01    0.302680E+00    0.803500E+01    0.120023E+01
    0.190610E+03    0.182832E+01    0.273476E+00    0.813534E+01    0.120465E+01
    0.191388E+03    0.181937E+01    0.274821E+00    0.827864E+01    0.122058E+01
    0.192384E+03    0.187347E+01    0.266884E+00    0.846312E+01    0.125750E+01
    0.193583E+03    0.195128E+01    0.256241E+00    0.868646E+01    0.132596E+01
    0.194963E+03    0.207201E+01    0.241312E+00    0.894580E+01    0.143588E+01
    0.196503E+03    0.224809E+01    0.222411E+00    0.923771E+01    0.159452E+01
    0.198178E+03    0.248527E+01    0.201186E+00    0.955820E+01    0.180482E+01
    0.199959E+03    0.278316E+01    0.179652E+00    0.990272E+01    0.206460E+01
    0.201818E+03    0.312960E+01    0.159765E+00    0.102661E+02    0.236716E+01
    0.203724E+03    0.351534E+01    0.142234E+00    0.106428E+02    0.270277E+01
    0.205645E+03    0.392712E+01    0.127320E+00    0.110269E+02    0.306047E+01
    0.207551E+03    0.435192E+01    0.114892E+00    0.114119E+02    0.342938E+01
    0.209410E+03    0.477783E+01    0.104650E+00    0.117916E+02    0.379942E+01
    0.211191E+03    0.519410E+01    0.962631E-01    0.121593E+02    0.416148E+01
    0.212866E+03    0.559112E+01    0.894276E-01    0.125084E+02    0.450735E+01
    0.214406E+03    0.596057E+01    0.838845E-01    0.128325E+02    0.482965E+01
    0.215786E+03    0.629476E+01    0.794312E-01    0.131256E+02    0.512166E+01
    0.216984E+03    0.658692E+01    0.759081E-01    0.133820E+02    0.537739E+01
    0.217981E+03    0.683121E+01    0.731935E-01    0.135965E+02    0.559158E+01
    0.218759E+03    0.702276E+01    0.711970E-01    0.137650E+02    0.575980E+01
    0.219305E+03    0.715797E+01    0.698522E-01    0.138839E+02    0.587856E+01
    0.219612E+03    0.723393E+01    0.691187E-01    0.139508E+02    0.594539E+01
    0.220059E+03    0.734469E+01    0.680764E-01    0.140484E+02    0.604290E+01
    0.221654E+03    0.774237E+01    0.645797E-01    0.143992E+02    0.639350E+01
    0.224513E+03    0.846168E+01    0.590900E-01    0.150364E+02    0.703058E+01
    0.228615E+03    0.950973E+01    0.525777E-01    0.159717E+02    0.796574E+01
    0.233933E+03    0.108965E+02    0.458864E-01    0.172231E+02    0.921713E+01
    0.240434E+03    0.126350E+02    0.395725E-01    0.188157E+02    0.108097E+02
    0.248081E+03    0.147405E+02    0.339201E-01    0.207817E+02    0.127757E+02
    0.256837E+03    0.172310E+02    0.290174E-01    0.231609E+02    0.151550E+02
    0.266663E+03    0.201288E+02    0.248401E-01    0.259939E+02    0.179879E+02
    0.277523E+03    0.234596E+02    0.213133E-01    0.293007E+02    0.212947E+02
    0.289387E+03    0.272515E+02    0.183476E-01    0.331059E+02    0.251000E+02
    0.302228E+03    0.315349E+02    0.158554E-01    0.374664E+02    0.294605E+02
    0.316029E+03    0.363457E+02    0.137568E-01    0.423681E+02    0.343622E+02
    0.330782E+03    0.417242E+02    0.119835E-01    0.478244E+02    0.398185E+02
    0.346489E+03    0.477159E+02    0.104787E-01    0.538877E+02    0.458817E+02
    0.363164E+03    0.543742E+02    0.919553E-02    0.605812E+02    0.525752E+02
    0.380835E+03    0.617618E+02    0.809562E-02    0.679694E+02    0.599634E+02
    0.399544E+03    0.699526E+02    0.714770E-02    0.761158E+02    0.681098E+02
    0.419354E+03    0.790353E+02    0.632629E-02    0.851023E+02    0.770963E+02
    0.440345E+03    0.891177E+02    0.561056E-02    0.950455E+02    0.870395E+02
    0.462626E+03    0.100331E+03    0.498349E-02    0.106086E+03    0.980796E+02
    0.486331E+03    0.112839E+03    0.443111E-02    0.118391E+03    0.110385E+03
    0.511636E+03    0.126844E+03    0.394186E-02    0.132162E+03    0.124156E+03
    0.538761E+03    0.142605E+03    0.350619E-02    0.147663E+03    0.139657E+03
    0.567988E+03    0.160454E+03    0.311615E-02    0.165242E+03    0.157236E+03
    0.599682E+03    0.180826E+03    0.276509E-02    0.185346E+03    0.177340E+03
    0.634321E+03    0.204287E+03    0.244754E-02    0.208579E+03    0.200573E+03
    0.672542E+03    0.231598E+03    0.215892E-02    0.235595E+03    0.227589E+03
    0.715224E+03    0.263811E+03    0.189530E-02    0.267556E+03    0.259550E+03
    0.763612E+03    0.302430E+03    0.165328E-02    0.305834E+03    0.297828E+03
    0.819561E+03    0.349740E+03    0.142963E-02    0.353162E+03    0.345156E+03
    0.885993E+03    0.409594E+03    0.122072E-02    0.413642E+03    0.405636E+03
    0.967922E+03    0.489270E+03    0.102193E-02    0.494831E+03    0.486825E+03
    0.107507E+04    0.604650E+03    0.826925E-03    0.613678E+03    0.605672E+03
    0.123051E+04    0.796095E+03    0.628066E-03    0.807901E+03    0.799895E+03
    0.151748E+04    0.121729E+04    0.410747E-03    0.122597E+04    0.121796E+04
