#     k [MeV]       Xi [MeV]       1/2/Xi [MeV-1]     e(k) [MeV]     Xi_qp [MeV]


# rho=   0.03200 temp=   0.90000
    0.868113E+00    0.218683E+02    0.228641E-01   -0.114907E+02    0.197951E+02
    0.453956E+01    0.218574E+02    0.228756E-01   -0.114791E+02    0.197834E+02
    0.110054E+02    0.218012E+02    0.229345E-01   -0.114164E+02    0.197208E+02
    0.200335E+02    0.216433E+02    0.231019E-01   -0.112381E+02    0.195425E+02
    0.312977E+02    0.213182E+02    0.234541E-01   -0.108595E+02    0.191639E+02
    0.443909E+02    0.207609E+02    0.240838E-01   -0.102119E+02    0.185162E+02
    0.588400E+02    0.199181E+02    0.251028E-01   -0.927508E+01    0.175795E+02
    0.741227E+02    0.187680E+02    0.266410E-01   -0.805603E+01    0.163604E+02
    0.896866E+02    0.173245E+02    0.288608E-01   -0.657877E+01    0.148831E+02
    0.104969E+03    0.156377E+02    0.319740E-01   -0.491098E+01    0.132154E+02
    0.119418E+03    0.137959E+02    0.362427E-01   -0.315457E+01    0.114590E+02
    0.132512E+03    0.119186E+02    0.419513E-01   -0.143118E+01    0.973594E+01
    0.143776E+03    0.101438E+02    0.492911E-01    0.146324E+00    0.815994E+01
    0.152804E+03    0.861744E+01    0.580219E-01    0.147538E+01    0.683591E+01
    0.159270E+03    0.747313E+01    0.669064E-01    0.246480E+01    0.585736E+01
    0.162941E+03    0.680874E+01    0.734350E-01    0.304137E+01    0.529347E+01
    0.163882E+03    0.663736E+01    0.753311E-01    0.319077E+01    0.514857E+01
    0.164188E+03    0.658144E+01    0.759712E-01    0.323968E+01    0.510126E+01
    0.164735E+03    0.648173E+01    0.771399E-01    0.332703E+01    0.501697E+01
    0.165513E+03    0.633960E+01    0.788693E-01    0.345170E+01    0.489707E+01
    0.166509E+03    0.615773E+01    0.811988E-01    0.361209E+01    0.474362E+01
    0.167707E+03    0.593902E+01    0.841889E-01    0.380611E+01    0.455941E+01
    0.169088E+03    0.568753E+01    0.879116E-01    0.403117E+01    0.434794E+01
    0.170628E+03    0.540834E+01    0.924499E-01    0.428421E+01    0.411356E+01
    0.172302E+03    0.510748E+01    0.978956E-01    0.456171E+01    0.386152E+01
    0.174084E+03    0.479210E+01    0.104338E+00    0.485967E+01    0.359799E+01
    0.175943E+03    0.447043E+01    0.111846E+00    0.517362E+01    0.333007E+01
    0.177848E+03    0.415169E+01    0.120433E+00    0.549875E+01    0.306556E+01
    0.179770E+03    0.384571E+01    0.130015E+00    0.582990E+01    0.281266E+01
    0.181676E+03    0.356190E+01    0.140374E+00    0.616173E+01    0.257936E+01
    0.183535E+03    0.330895E+01    0.151105E+00    0.648868E+01    0.237274E+01
    0.185316E+03    0.309324E+01    0.161643E+00    0.680513E+01    0.219818E+01
    0.186991E+03    0.291876E+01    0.171306E+00    0.710546E+01    0.205863E+01
    0.188531E+03    0.278628E+01    0.179451E+00    0.738416E+01    0.195415E+01
    0.189911E+03    0.269285E+01    0.185677E+00    0.763600E+01    0.188197E+01
    0.191109E+03    0.263413E+01    0.189816E+00    0.785617E+01    0.183705E+01
    0.192106E+03    0.261318E+01    0.191338E+00    0.804034E+01    0.181289E+01
    0.192883E+03    0.260021E+01    0.192292E+00    0.818486E+01    0.180264E+01
    0.193430E+03    0.295998E+01    0.168920E+00    0.828683E+01    0.180006E+01
    0.193737E+03    0.247737E+01    0.201827E+00    0.834419E+01    0.180029E+01
    0.193882E+03    0.252944E+01    0.197673E+00    0.837121E+01    0.180083E+01
    0.194188E+03    0.254750E+01    0.196271E+00    0.842872E+01    0.180286E+01
    0.194735E+03    0.254270E+01    0.196641E+00    0.853144E+01    0.180954E+01
    0.195513E+03    0.257903E+01    0.193872E+00    0.867810E+01    0.182579E+01
    0.196509E+03    0.261025E+01    0.191552E+00    0.886686E+01    0.185821E+01
    0.197707E+03    0.266807E+01    0.187402E+00    0.909529E+01    0.191438E+01
    0.199088E+03    0.276439E+01    0.180871E+00    0.936040E+01    0.200193E+01
    0.200628E+03    0.290521E+01    0.172105E+00    0.965861E+01    0.212746E+01
    0.202302E+03    0.309282E+01    0.161665E+00    0.998578E+01    0.229542E+01
    0.204084E+03    0.333104E+01    0.150103E+00    0.103372E+02    0.250723E+01
    0.205943E+03    0.362090E+01    0.138087E+00    0.107078E+02    0.276091E+01
    0.207848E+03    0.395126E+01    0.126542E+00    0.110918E+02    0.305124E+01
    0.209770E+03    0.431657E+01    0.115833E+00    0.114833E+02    0.337043E+01
    0.211676E+03    0.470353E+01    0.106303E+00    0.118757E+02    0.370903E+01
    0.213535E+03    0.510136E+01    0.980131E-01    0.122627E+02    0.405688E+01
    0.215316E+03    0.549772E+01    0.909468E-01    0.126373E+02    0.440381E+01
    0.216991E+03    0.588155E+01    0.850115E-01    0.129930E+02    0.474016E+01
    0.218531E+03    0.624274E+01    0.800930E-01    0.133233E+02    0.505704E+01
    0.219911E+03    0.657214E+01    0.760787E-01    0.136219E+02    0.534646E+01
    0.221109E+03    0.686182E+01    0.728669E-01    0.138830E+02    0.560138E+01
    0.222106E+03    0.710507E+01    0.703723E-01    0.141016E+02    0.581576E+01
    0.222883E+03    0.729637E+01    0.685272E-01    0.142732E+02    0.598460E+01
    0.223430E+03    0.743166E+01    0.672797E-01    0.143943E+02    0.610401E+01
    0.223737E+03    0.750776E+01    0.665978E-01    0.144625E+02    0.617128E+01
    0.224192E+03    0.762090E+01    0.656090E-01    0.145638E+02    0.627136E+01
    0.225823E+03    0.802958E+01    0.622698E-01    0.149292E+02    0.663330E+01
    0.228745E+03    0.877191E+01    0.570001E-01    0.155936E+02    0.729367E+01
    0.232938E+03    0.985796E+01    0.507205E-01    0.165696E+02    0.826689E+01
    0.238374E+03    0.112991E+02    0.442512E-01    0.178764E+02    0.957252E+01
    0.245020E+03    0.131086E+02    0.381430E-01    0.195408E+02    0.112365E+02
    0.252838E+03    0.153022E+02    0.326751E-01    0.215955E+02    0.132911E+02
    0.261789E+03    0.178996E+02    0.279336E-01    0.240796E+02    0.157753E+02
    0.271833E+03    0.209238E+02    0.238962E-01    0.270285E+02    0.187241E+02
    0.282935E+03    0.244009E+02    0.204910E-01    0.304643E+02    0.221599E+02
    0.295062E+03    0.283607E+02    0.176300E-01    0.344307E+02    0.261264E+02
    0.308189E+03    0.328353E+02    0.152275E-01    0.389745E+02    0.306701E+02
    0.322298E+03    0.378617E+02    0.132060E-01    0.440682E+02    0.357639E+02
    0.337379E+03    0.434820E+02    0.114990E-01    0.497625E+02    0.414581E+02
    0.353435E+03    0.497434E+02    0.100516E-01    0.560757E+02    0.477713E+02
    0.370481E+03    0.567018E+02    0.881806E-02    0.630609E+02    0.547565E+02
    0.388545E+03    0.644223E+02    0.776129E-02    0.707613E+02    0.624570E+02
    0.407671E+03    0.729819E+02    0.685102E-02    0.792570E+02    0.709527E+02
    0.427921E+03    0.824731E+02    0.606258E-02    0.886340E+02    0.803296E+02
    0.449380E+03    0.930079E+02    0.537589E-02    0.990127E+02    0.907083E+02
    0.472156E+03    0.104724E+03    0.477448E-02    0.110538E+03    0.102233E+03
    0.496389E+03    0.117790E+03    0.424484E-02    0.123383E+03    0.115078E+03
    0.522256E+03    0.132420E+03    0.377585E-02    0.137760E+03    0.129456E+03
    0.549985E+03    0.148884E+03    0.335831E-02    0.153949E+03    0.145645E+03
    0.579862E+03    0.167530E+03    0.298455E-02    0.172311E+03    0.164006E+03
    0.612261E+03    0.188805E+03    0.264824E-02    0.193315E+03    0.185010E+03
    0.647670E+03    0.213298E+03    0.234413E-02    0.217557E+03    0.209253E+03
    0.686742E+03    0.241793E+03    0.206789E-02    0.245762E+03    0.237458E+03
    0.730374E+03    0.275372E+03    0.181573E-02    0.279000E+03    0.270696E+03
    0.779839E+03    0.315580E+03    0.158438E-02    0.318891E+03    0.310586E+03
    0.837032E+03    0.364806E+03    0.137059E-02    0.367996E+03    0.359691E+03
    0.904943E+03    0.427110E+03    0.117066E-02    0.431191E+03    0.422887E+03
    0.988694E+03    0.510253E+03    0.979906E-03    0.516222E+03    0.507918E+03
    0.109822E+04    0.631007E+03    0.792384E-03    0.640580E+03    0.632276E+03
    0.125712E+04    0.831210E+03    0.601533E-03    0.843629E+03    0.835325E+03
    0.155047E+04    0.127091E+04    0.393418E-03    0.127975E+04    0.127145E+04
