#     k [MeV]       Xi [MeV]       1/2/Xi [MeV-1]     e(k) [MeV]     Xi_qp [MeV]


# rho=   0.08000 temp=   0.00000
    0.123500E+01    0.418383E+02    0.119508E-01   -0.238904E+02    0.367413E+02
    0.645811E+01    0.418164E+02    0.119570E-01   -0.238708E+02    0.367217E+02
    0.156566E+02    0.416986E+02    0.119908E-01   -0.237590E+02    0.366099E+02
    0.285002E+02    0.413729E+02    0.120852E-01   -0.234536E+02    0.363044E+02
    0.445250E+02    0.406943E+02    0.122867E-01   -0.227868E+02    0.356377E+02
    0.631518E+02    0.395218E+02    0.126512E-01   -0.216145E+02    0.344654E+02
    0.837074E+02    0.377541E+02    0.132436E-01   -0.198571E+02    0.327080E+02
    0.105449E+03    0.353422E+02    0.141474E-01   -0.174691E+02    0.303200E+02
    0.127591E+03    0.323010E+02    0.154794E-01   -0.145312E+02    0.273820E+02
    0.149332E+03    0.287382E+02    0.173985E-01   -0.112081E+02    0.240589E+02
    0.169888E+03    0.248505E+02    0.201203E-01   -0.773064E+01    0.205815E+02
    0.188515E+03    0.208845E+02    0.239412E-01   -0.427194E+01    0.171228E+02
    0.204539E+03    0.171279E+02    0.291922E-01   -0.104376E+01    0.138946E+02
    0.217383E+03    0.138737E+02    0.360394E-01    0.171566E+01    0.111352E+02
    0.226582E+03    0.114189E+02    0.437869E-01    0.379055E+01    0.906028E+01
    0.231805E+03    0.999147E+01    0.500427E-01    0.500714E+01    0.784369E+01
    0.233112E+03    0.962593E+01    0.519431E-01    0.531586E+01    0.753496E+01
    0.233419E+03    0.953952E+01    0.524135E-01    0.538858E+01    0.746225E+01
    0.233966E+03    0.938518E+01    0.532755E-01    0.551838E+01    0.733245E+01
    0.234743E+03    0.916445E+01    0.545586E-01    0.570352E+01    0.714731E+01
    0.235740E+03    0.888174E+01    0.562953E-01    0.594148E+01    0.690935E+01
    0.236938E+03    0.853854E+01    0.585580E-01    0.622897E+01    0.662186E+01
    0.238318E+03    0.813754E+01    0.614436E-01    0.656196E+01    0.628887E+01
    0.239858E+03    0.768297E+01    0.650790E-01    0.693570E+01    0.591513E+01
    0.241533E+03    0.718067E+01    0.696314E-01    0.734478E+01    0.550605E+01
    0.243314E+03    0.663695E+01    0.753359E-01    0.778310E+01    0.506773E+01
    0.245173E+03    0.606034E+01    0.825036E-01    0.824392E+01    0.460691E+01
    0.247079E+03    0.544840E+01    0.917701E-01    0.871998E+01    0.413085E+01
    0.249001E+03    0.482231E+01    0.103685E+00    0.920360E+01    0.364723E+01
    0.250906E+03    0.419446E+01    0.119205E+00    0.968686E+01    0.316397E+01
    0.252765E+03    0.357576E+01    0.139830E+00    0.101617E+02    0.268916E+01
    0.254547E+03    0.297655E+01    0.167980E+00    0.106199E+02    0.223089E+01
    0.256221E+03    0.240580E+01    0.207831E+00    0.110537E+02    0.179715E+01
    0.257761E+03    0.187435E+01    0.266760E+00    0.114552E+02    0.139563E+01
    0.259142E+03    0.139216E+01    0.359155E+00    0.118172E+02    0.103358E+01
    0.260340E+03    0.969716E+00    0.515615E+00    0.121332E+02    0.717674E+00
    0.261336E+03    0.615082E+00    0.812899E+00    0.123970E+02    0.453820E+00
    0.262114E+03    0.336389E+00    0.148637E+01    0.126038E+02    0.247025E+00
    0.262661E+03    0.137444E+00    0.363783E+01    0.127496E+02    0.101254E+00
    0.262968E+03    0.281063E-01    0.177896E+02    0.128315E+02    0.192981E-01
    0.263112E+03    0.258179E-01    0.193664E+02    0.128701E+02    0.192981E-01
    0.263419E+03    0.133020E+00    0.375884E+01    0.129522E+02    0.101410E+00
    0.263966E+03    0.331680E+00    0.150748E+01    0.130988E+02    0.247984E+00
    0.264743E+03    0.610614E+00    0.818848E+00    0.133079E+02    0.457081E+00
    0.265740E+03    0.965933E+00    0.517634E+00    0.135767E+02    0.725866E+00
    0.266938E+03    0.139065E+01    0.359544E+00    0.139015E+02    0.105065E+01
    0.268318E+03    0.187697E+01    0.266386E+00    0.142777E+02    0.142690E+01
    0.269858E+03    0.241562E+01    0.206986E+00    0.147001E+02    0.184929E+01
    0.271533E+03    0.299745E+01    0.166809E+00    0.151626E+02    0.231176E+01
    0.273314E+03    0.361457E+01    0.138329E+00    0.156583E+02    0.280752E+01
    0.275173E+03    0.425779E+01    0.117432E+00    0.161799E+02    0.332910E+01
    0.277079E+03    0.491741E+01    0.101680E+00    0.167193E+02    0.386847E+01
    0.279001E+03    0.558099E+01    0.895898E-01    0.172679E+02    0.441707E+01
    0.280906E+03    0.623643E+01    0.801741E-01    0.178168E+02    0.496601E+01
    0.282765E+03    0.687688E+01    0.727074E-01    0.183570E+02    0.550616E+01
    0.284547E+03    0.749209E+01    0.667370E-01    0.188791E+02    0.602827E+01
    0.286221E+03    0.807168E+01    0.619450E-01    0.193740E+02    0.652315E+01
    0.287761E+03    0.860567E+01    0.581012E-01    0.198327E+02    0.698188E+01
    0.289142E+03    0.908532E+01    0.550338E-01    0.202468E+02    0.739598E+01
    0.290340E+03    0.950290E+01    0.526155E-01    0.206085E+02    0.775767E+01
    0.291336E+03    0.985123E+01    0.507551E-01    0.209108E+02    0.806000E+01
    0.292114E+03    0.101239E+02    0.493881E-01    0.211479E+02    0.829711E+01
    0.292661E+03    0.103159E+02    0.484687E-01    0.213151E+02    0.846432E+01
    0.292968E+03    0.104238E+02    0.479674E-01    0.214092E+02    0.855836E+01
    0.293562E+03    0.106332E+02    0.470226E-01    0.215919E+02    0.874103E+01
    0.295789E+03    0.114224E+02    0.437737E-01    0.222805E+02    0.942963E+01
    0.299778E+03    0.128609E+02    0.388775E-01    0.235327E+02    0.106819E+02
    0.305503E+03    0.149559E+02    0.334315E-01    0.253715E+02    0.125207E+02
    0.312925E+03    0.177294E+02    0.282017E-01    0.278272E+02    0.149764E+02
    0.321999E+03    0.212083E+02    0.235756E-01    0.309396E+02    0.180888E+02
    0.332672E+03    0.254245E+02    0.196660E-01    0.347721E+02    0.219213E+02
    0.344892E+03    0.304171E+02    0.164381E-01    0.393866E+02    0.265358E+02
    0.358606E+03    0.362292E+02    0.138010E-01    0.448494E+02    0.319986E+02
    0.373763E+03    0.429095E+02    0.116524E-01    0.512549E+02    0.384041E+02
    0.390320E+03    0.505108E+02    0.989886E-02    0.586400E+02    0.457892E+02
    0.408242E+03    0.590925E+02    0.846132E-02    0.670410E+02    0.541901E+02
    0.427505E+03    0.687206E+02    0.727584E-02    0.764893E+02    0.636385E+02
    0.448095E+03    0.794701E+02    0.629167E-02    0.870144E+02    0.741636E+02
    0.470017E+03    0.914264E+02    0.546888E-02    0.986715E+02    0.858206E+02
    0.493289E+03    0.104687E+03    0.477613E-02    0.111555E+03    0.987038E+02
    0.517951E+03    0.119367E+03    0.418876E-02    0.125793E+03    0.112943E+03
    0.544063E+03    0.135597E+03    0.368740E-02    0.141546E+03    0.128695E+03
    0.571711E+03    0.153530E+03    0.325669E-02    0.158983E+03    0.146132E+03
    0.601008E+03    0.173349E+03    0.288436E-02    0.178269E+03    0.165418E+03
    0.632104E+03    0.195263E+03    0.256065E-02    0.199586E+03    0.186735E+03
    0.665189E+03    0.219523E+03    0.227767E-02    0.223126E+03    0.210275E+03
    0.700506E+03    0.246429E+03    0.202898E-02    0.249051E+03    0.236200E+03
    0.738363E+03    0.276361E+03    0.180923E-02    0.278243E+03    0.265392E+03
    0.779154E+03    0.309810E+03    0.161389E-02    0.311254E+03    0.298403E+03
    0.823388E+03    0.347477E+03    0.143895E-02    0.349322E+03    0.336471E+03
    0.871732E+03    0.390433E+03    0.128063E-02    0.393779E+03    0.380928E+03
    0.925076E+03    0.440275E+03    0.113565E-02    0.446550E+03    0.433700E+03
    0.984645E+03    0.499395E+03    0.100121E-02    0.509414E+03    0.496563E+03
    0.105218E+04    0.571391E+03    0.875058E-03    0.585916E+03    0.573065E+03
    0.113026E+04    0.661694E+03    0.755636E-03    0.681116E+03    0.668265E+03
    0.122298E+04    0.778792E+03    0.642020E-03    0.800377E+03    0.787526E+03
    0.133733E+04    0.936741E+03    0.533765E-03    0.955808E+03    0.942957E+03
    0.148686E+04    0.116316E+04    0.429862E-03    0.117792E+04    0.116507E+04
    0.170381E+04    0.153196E+04    0.326379E-03    0.154487E+04    0.153202E+04
    0.210432E+04    0.234362E+04    0.213345E-03    0.235647E+04    0.234362E+04
