#     kf [fm-1]   Tc Fit [MeV]  
  0.000000E+00   0.000000E+00
  1.005025E-02   0.000000E+00
  2.010050E-02   2.103835E-04
  3.015075E-02   1.626325E-03
  4.020101E-02   4.365847E-03
  5.025126E-02   8.415414E-03
  6.030151E-02   1.375958E-02
  7.035176E-02   2.038100E-02
  8.040201E-02   2.826047E-02
  9.045226E-02   3.737698E-02
  1.005025E-01   4.770769E-02
  1.105528E-01   5.922804E-02
  1.206030E-01   7.191177E-02
  1.306533E-01   8.573095E-02
  1.407035E-01   1.006561E-01
  1.507538E-01   1.166561E-01
  1.608040E-01   1.336985E-01
  1.708543E-01   1.517494E-01
  1.809045E-01   1.707734E-01
  1.909548E-01   1.907341E-01
  2.010050E-01   2.115936E-01
  2.110553E-01   2.333131E-01
  2.211055E-01   2.558527E-01
  2.311558E-01   2.791713E-01
  2.412060E-01   3.032272E-01
  2.512563E-01   3.279778E-01
  2.613065E-01   3.533794E-01
  2.713568E-01   3.793881E-01
  2.814070E-01   4.059591E-01
  2.914573E-01   4.330472E-01
  3.015075E-01   4.606064E-01
  3.115578E-01   4.885908E-01
  3.216080E-01   5.169539E-01
  3.316583E-01   5.456488E-01
  3.417085E-01   5.746286E-01
  3.517588E-01   6.038463E-01
  3.618090E-01   6.332547E-01
  3.718593E-01   6.628065E-01
  3.819095E-01   6.924545E-01
  3.919598E-01   7.221517E-01
  4.020101E-01   7.518512E-01
  4.120603E-01   7.815060E-01
  4.221106E-01   8.110697E-01
  4.321608E-01   8.404959E-01
  4.422111E-01   8.697386E-01
  4.522613E-01   8.987521E-01
  4.623116E-01   9.274912E-01
  4.723618E-01   9.559108E-01
  4.824121E-01   9.839665E-01
  4.924623E-01   1.011614E+00
  5.025126E-01   1.038811E+00
  5.125628E-01   1.065512E+00
  5.226131E-01   1.091677E+00
  5.326633E-01   1.117263E+00
  5.427136E-01   1.142228E+00
  5.527638E-01   1.166532E+00
  5.628141E-01   1.190134E+00
  5.728643E-01   1.212996E+00
  5.829146E-01   1.235077E+00
  5.929648E-01   1.256339E+00
  6.030151E-01   1.276746E+00
  6.130653E-01   1.296260E+00
  6.231156E-01   1.314844E+00
  6.331658E-01   1.332464E+00
  6.432161E-01   1.349084E+00
  6.532663E-01   1.364671E+00
  6.633166E-01   1.379191E+00
  6.733668E-01   1.392613E+00
  6.834171E-01   1.404903E+00
  6.934673E-01   1.416033E+00
  7.035176E-01   1.425973E+00
  7.135678E-01   1.434694E+00
  7.236181E-01   1.442168E+00
  7.336683E-01   1.448369E+00
  7.437186E-01   1.453272E+00
  7.537688E-01   1.456853E+00
  7.638191E-01   1.459090E+00
  7.738693E-01   1.459960E+00
  7.839196E-01   1.459444E+00
  7.939698E-01   1.457525E+00
  8.040201E-01   1.454185E+00
  8.140704E-01   1.449409E+00
  8.241206E-01   1.443185E+00
  8.341709E-01   1.435503E+00
  8.442211E-01   1.426352E+00
  8.542714E-01   1.415728E+00
  8.643216E-01   1.403626E+00
  8.743719E-01   1.390045E+00
  8.844221E-01   1.374986E+00
  8.944724E-01   1.358454E+00
  9.045226E-01   1.340456E+00
  9.145729E-01   1.321004E+00
  9.246231E-01   1.300111E+00
  9.346734E-01   1.277797E+00
  9.447236E-01   1.254083E+00
  9.547739E-01   1.228995E+00
  9.648241E-01   1.202563E+00
  9.748744E-01   1.174823E+00
  9.849246E-01   1.145815E+00
  9.949749E-01   1.115582E+00
  1.005025E+00   1.084175E+00
  1.015075E+00   1.051648E+00
  1.025126E+00   1.018061E+00
  1.035176E+00   9.834807E-01
  1.045226E+00   9.479779E-01
  1.055276E+00   9.116298E-01
  1.065327E+00   8.745191E-01
  1.075377E+00   8.367347E-01
  1.085427E+00   7.983709E-01
  1.095477E+00   7.595280E-01
  1.105528E+00   7.203119E-01
  1.115578E+00   6.808341E-01
  1.125628E+00   6.412112E-01
  1.135678E+00   6.015653E-01
  1.145729E+00   5.620229E-01
  1.155779E+00   5.227152E-01
  1.165829E+00   4.837775E-01
  1.175879E+00   4.453485E-01
  1.185930E+00   4.075702E-01
  1.195980E+00   3.705867E-01
  1.206030E+00   3.345443E-01
  1.216080E+00   2.995904E-01
  1.226131E+00   2.658725E-01
  1.236181E+00   2.335381E-01
  1.246231E+00   2.027334E-01
  1.256281E+00   1.736024E-01
  1.266332E+00   1.462865E-01
  1.276382E+00   1.209230E-01
  1.286432E+00   9.764491E-02
  1.296482E+00   7.657941E-02
  1.306533E+00   5.784750E-02
  1.316583E+00   4.156295E-02
  1.326633E+00   2.783157E-02
  1.336683E+00   1.675051E-02
  1.346734E+00   8.407571E-03
  1.356784E+00   2.880606E-03
  1.366834E+00   2.370373E-04
  1.376884E+00   0.000000E+00
  1.386935E+00   0.000000E+00
  1.396985E+00   0.000000E+00
  1.407035E+00   0.000000E+00
  1.417085E+00   0.000000E+00
  1.427136E+00   0.000000E+00
  1.437186E+00   0.000000E+00
  1.447236E+00   0.000000E+00
  1.457286E+00   0.000000E+00
  1.467337E+00   0.000000E+00
  1.477387E+00   0.000000E+00
  1.487437E+00   0.000000E+00
  1.497487E+00   0.000000E+00
  1.507538E+00   0.000000E+00
  1.517588E+00   0.000000E+00
  1.527638E+00   0.000000E+00
  1.537688E+00   0.000000E+00
  1.547739E+00   0.000000E+00
  1.557789E+00   0.000000E+00
  1.567839E+00   0.000000E+00
  1.577889E+00   0.000000E+00
  1.587940E+00   0.000000E+00
  1.597990E+00   0.000000E+00
  1.608040E+00   0.000000E+00
  1.618090E+00   0.000000E+00
  1.628141E+00   0.000000E+00
  1.638191E+00   0.000000E+00
  1.648241E+00   0.000000E+00
  1.658291E+00   0.000000E+00
  1.668342E+00   0.000000E+00
  1.678392E+00   0.000000E+00
  1.688442E+00   0.000000E+00
  1.698492E+00   0.000000E+00
  1.708543E+00   0.000000E+00
  1.718593E+00   0.000000E+00
  1.728643E+00   0.000000E+00
  1.738693E+00   0.000000E+00
  1.748744E+00   0.000000E+00
  1.758794E+00   0.000000E+00
  1.768844E+00   0.000000E+00
  1.778894E+00   0.000000E+00
  1.788945E+00   0.000000E+00
  1.798995E+00   0.000000E+00
  1.809045E+00   0.000000E+00
  1.819095E+00   0.000000E+00
  1.829146E+00   0.000000E+00
  1.839196E+00   0.000000E+00
  1.849246E+00   0.000000E+00
  1.859296E+00   0.000000E+00
  1.869347E+00   0.000000E+00
  1.879397E+00   0.000000E+00
  1.889447E+00   0.000000E+00
  1.899497E+00   0.000000E+00
  1.909548E+00   0.000000E+00
  1.919598E+00   0.000000E+00
  1.929648E+00   0.000000E+00
  1.939698E+00   0.000000E+00
  1.949749E+00   0.000000E+00
  1.959799E+00   0.000000E+00
  1.969849E+00   0.000000E+00
  1.979899E+00   0.000000E+00
  1.989950E+00   0.000000E+00
  2.000000E+00   0.000000E+00
