#     kf [fm-1]   Tc Fit [MeV]  
  0.000000E+00   0.000000E+00
  1.005025E-02   4.350756E-04
  2.010050E-02   1.737466E-03
  3.015075E-02   3.901396E-03
  4.020101E-02   6.919078E-03
  5.025126E-02   1.078075E-02
  6.030151E-02   1.547471E-02
  7.035176E-02   2.098740E-02
  8.040201E-02   2.730340E-02
  9.045226E-02   3.440559E-02
  1.005025E-01   4.227516E-02
  1.105528E-01   5.089173E-02
  1.206030E-01   6.023344E-02
  1.306533E-01   7.027703E-02
  1.407035E-01   8.099800E-02
  1.507538E-01   9.237063E-02
  1.608040E-01   1.043682E-01
  1.708543E-01   1.169629E-01
  1.809045E-01   1.301263E-01
  1.909548E-01   1.438291E-01
  2.010050E-01   1.580415E-01
  2.110553E-01   1.727331E-01
  2.211055E-01   1.878731E-01
  2.311558E-01   2.034306E-01
  2.412060E-01   2.193743E-01
  2.512563E-01   2.356729E-01
  2.613065E-01   2.522953E-01
  2.713568E-01   2.692103E-01
  2.814070E-01   2.863869E-01
  2.914573E-01   3.037944E-01
  3.015075E-01   3.214025E-01
  3.115578E-01   3.391813E-01
  3.216080E-01   3.571012E-01
  3.316583E-01   3.751334E-01
  3.417085E-01   3.932493E-01
  3.517588E-01   4.114213E-01
  3.618090E-01   4.296222E-01
  3.718593E-01   4.478254E-01
  3.819095E-01   4.660052E-01
  3.919598E-01   4.841366E-01
  4.020101E-01   5.021951E-01
  4.120603E-01   5.201572E-01
  4.221106E-01   5.380000E-01
  4.321608E-01   5.557012E-01
  4.422111E-01   5.732395E-01
  4.522613E-01   5.905941E-01
  4.623116E-01   6.077451E-01
  4.723618E-01   6.246731E-01
  4.824121E-01   6.413595E-01
  4.924623E-01   6.577863E-01
  5.025126E-01   6.739361E-01
  5.125628E-01   6.897921E-01
  5.226131E-01   7.053381E-01
  5.326633E-01   7.205585E-01
  5.427136E-01   7.354381E-01
  5.527638E-01   7.499623E-01
  5.628141E-01   7.641168E-01
  5.728643E-01   7.778878E-01
  5.829146E-01   7.912618E-01
  5.929648E-01   8.042259E-01
  6.030151E-01   8.167671E-01
  6.130653E-01   8.288731E-01
  6.231156E-01   8.405314E-01
  6.331658E-01   8.517302E-01
  6.432161E-01   8.624573E-01
  6.532663E-01   8.727012E-01
  6.633166E-01   8.824501E-01
  6.733668E-01   8.916924E-01
  6.834171E-01   9.004167E-01
  6.934673E-01   9.086112E-01
  7.035176E-01   9.162645E-01
  7.135678E-01   9.233648E-01
  7.236181E-01   9.299006E-01
  7.336683E-01   9.358600E-01
  7.437186E-01   9.412310E-01
  7.537688E-01   9.460015E-01
  7.638191E-01   9.501593E-01
  7.738693E-01   9.536918E-01
  7.839196E-01   9.565866E-01
  7.939698E-01   9.588306E-01
  8.040201E-01   9.604107E-01
  8.140704E-01   9.613138E-01
  8.241206E-01   9.615262E-01
  8.341709E-01   9.610343E-01
  8.442211E-01   9.598240E-01
  8.542714E-01   9.578814E-01
  8.643216E-01   9.551921E-01
  8.743719E-01   9.517417E-01
  8.844221E-01   9.475160E-01
  8.944724E-01   9.425003E-01
  9.045226E-01   9.366804E-01
  9.145729E-01   9.300419E-01
  9.246231E-01   9.225709E-01
  9.346734E-01   9.142537E-01
  9.447236E-01   9.050769E-01
  9.547739E-01   8.950280E-01
  9.648241E-01   8.840951E-01
  9.748744E-01   8.722673E-01
  9.849246E-01   8.595347E-01
  9.949749E-01   8.458889E-01
  1.005025E+00   8.313232E-01
  1.015075E+00   8.158326E-01
  1.025126E+00   7.994146E-01
  1.035176E+00   7.820691E-01
  1.045226E+00   7.637988E-01
  1.055276E+00   7.446100E-01
  1.065327E+00   7.245127E-01
  1.075377E+00   7.035209E-01
  1.085427E+00   6.816535E-01
  1.095477E+00   6.589344E-01
  1.105528E+00   6.353935E-01
  1.115578E+00   6.110666E-01
  1.125628E+00   5.859964E-01
  1.135678E+00   5.602330E-01
  1.145729E+00   5.338339E-01
  1.155779E+00   5.068653E-01
  1.165829E+00   4.794018E-01
  1.175879E+00   4.515271E-01
  1.185930E+00   4.233341E-01
  1.195980E+00   3.949254E-01
  1.206030E+00   3.664129E-01
  1.216080E+00   3.379179E-01
  1.226131E+00   3.095712E-01
  1.236181E+00   2.815117E-01
  1.246231E+00   2.538868E-01
  1.256281E+00   2.268509E-01
  1.266332E+00   2.005642E-01
  1.276382E+00   1.751917E-01
  1.286432E+00   1.509016E-01
  1.296482E+00   1.278633E-01
  1.306533E+00   1.062455E-01
  1.316583E+00   8.621416E-02
  1.326633E+00   6.793006E-02
  1.336683E+00   5.154671E-02
  1.346734E+00   3.720789E-02
  1.356784E+00   2.504539E-02
  1.366834E+00   1.517687E-02
  1.376884E+00   7.703874E-03
  1.386935E+00   2.710128E-03
  1.396985E+00   2.601027E-04
  1.407035E+00   0.000000E+00
  1.417085E+00   0.000000E+00
  1.427136E+00   0.000000E+00
  1.437186E+00   0.000000E+00
  1.447236E+00   0.000000E+00
  1.457286E+00   0.000000E+00
  1.467337E+00   0.000000E+00
  1.477387E+00   0.000000E+00
  1.487437E+00   0.000000E+00
  1.497487E+00   0.000000E+00
  1.507538E+00   0.000000E+00
  1.517588E+00   0.000000E+00
  1.527638E+00   0.000000E+00
  1.537688E+00   0.000000E+00
  1.547739E+00   0.000000E+00
  1.557789E+00   0.000000E+00
  1.567839E+00   0.000000E+00
  1.577889E+00   0.000000E+00
  1.587940E+00   0.000000E+00
  1.597990E+00   0.000000E+00
  1.608040E+00   0.000000E+00
  1.618090E+00   0.000000E+00
  1.628141E+00   0.000000E+00
  1.638191E+00   0.000000E+00
  1.648241E+00   0.000000E+00
  1.658291E+00   0.000000E+00
  1.668342E+00   0.000000E+00
  1.678392E+00   0.000000E+00
  1.688442E+00   0.000000E+00
  1.698492E+00   0.000000E+00
  1.708543E+00   0.000000E+00
  1.718593E+00   0.000000E+00
  1.728643E+00   0.000000E+00
  1.738693E+00   0.000000E+00
  1.748744E+00   0.000000E+00
  1.758794E+00   0.000000E+00
  1.768844E+00   0.000000E+00
  1.778894E+00   0.000000E+00
  1.788945E+00   0.000000E+00
  1.798995E+00   0.000000E+00
  1.809045E+00   0.000000E+00
  1.819095E+00   0.000000E+00
  1.829146E+00   0.000000E+00
  1.839196E+00   0.000000E+00
  1.849246E+00   0.000000E+00
  1.859296E+00   0.000000E+00
  1.869347E+00   0.000000E+00
  1.879397E+00   0.000000E+00
  1.889447E+00   0.000000E+00
  1.899497E+00   0.000000E+00
  1.909548E+00   0.000000E+00
  1.919598E+00   0.000000E+00
  1.929648E+00   0.000000E+00
  1.939698E+00   0.000000E+00
  1.949749E+00   0.000000E+00
  1.959799E+00   0.000000E+00
  1.969849E+00   0.000000E+00
  1.979899E+00   0.000000E+00
  1.989950E+00   0.000000E+00
  2.000000E+00   0.000000E+00
