#     k [MeV]       Xi [MeV]       1/2/Xi [MeV-1]     e(k) [MeV]     Xi_qp [MeV]


# rho=   0.16000 temp=   0.05000
    0.159733E+01    0.732285E+02    0.682794E-02   -0.428431E+02    0.645269E+02
    0.835280E+01    0.731840E+02    0.683209E-02   -0.428009E+02    0.644847E+02
    0.202500E+02    0.729664E+02    0.685247E-02   -0.425732E+02    0.642570E+02
    0.368617E+02    0.723472E+02    0.691112E-02   -0.419381E+02    0.636220E+02
    0.575878E+02    0.710686E+02    0.703546E-02   -0.406269E+02    0.623108E+02
    0.816794E+02    0.688733E+02    0.725971E-02   -0.384175E+02    0.601014E+02
    0.108266E+03    0.655682E+02    0.762565E-02   -0.351901E+02    0.568740E+02
    0.136386E+03    0.610611E+02    0.818852E-02   -0.308913E+02    0.525752E+02
    0.165023E+03    0.554013E+02    0.902506E-02   -0.256067E+02    0.472905E+02
    0.193144E+03    0.487891E+02    0.102482E-01   -0.195710E+02    0.412549E+02
    0.219730E+03    0.415717E+02    0.120274E-01   -0.131419E+02    0.348258E+02
    0.243821E+03    0.342144E+02    0.146137E-01   -0.667858E+01    0.283624E+02
    0.264548E+03    0.272580E+02    0.183432E-01   -0.653110E+00    0.223370E+02
    0.281159E+03    0.212508E+02    0.235285E-01    0.443995E+01    0.172439E+02
    0.293056E+03    0.167064E+02    0.299286E-01    0.826228E+01    0.134216E+02
    0.299812E+03    0.140338E+02    0.356283E-01    0.105007E+02    0.111831E+02
    0.301481E+03    0.133623E+02    0.374186E-01    0.110621E+02    0.106217E+02
    0.301788E+03    0.132385E+02    0.377686E-01    0.111657E+02    0.105181E+02
    0.302335E+03    0.130175E+02    0.384097E-01    0.113506E+02    0.103333E+02
    0.303113E+03    0.127026E+02    0.393620E-01    0.116141E+02    0.100697E+02
    0.304109E+03    0.122978E+02    0.406578E-01    0.119528E+02    0.973103E+01
    0.305307E+03    0.118082E+02    0.423434E-01    0.123618E+02    0.932209E+01
    0.306688E+03    0.112422E+02    0.444754E-01    0.128351E+02    0.884878E+01
    0.308228E+03    0.106070E+02    0.471386E-01    0.133657E+02    0.831811E+01
    0.309902E+03    0.991156E+01    0.504462E-01    0.139457E+02    0.773810E+01
    0.311684E+03    0.916858E+01    0.545341E-01    0.145662E+02    0.711766E+01
    0.313542E+03    0.838537E+01    0.596277E-01    0.152173E+02    0.646652E+01
    0.315448E+03    0.757879E+01    0.659736E-01    0.158888E+02    0.579507E+01
    0.317370E+03    0.675316E+01    0.740394E-01    0.165696E+02    0.511424E+01
    0.319276E+03    0.593652E+01    0.842244E-01    0.172485E+02    0.443533E+01
    0.321135E+03    0.513545E+01    0.973625E-01    0.179140E+02    0.376981E+01
    0.322916E+03    0.436218E+01    0.114622E+00    0.185548E+02    0.312903E+01
    0.324591E+03    0.363270E+01    0.137639E+00    0.191599E+02    0.252398E+01
    0.326131E+03    0.296243E+01    0.168781E+00    0.197187E+02    0.196510E+01
    0.327511E+03    0.236750E+01    0.211193E+00    0.202217E+02    0.146215E+01
    0.328709E+03    0.186589E+01    0.267969E+00    0.206598E+02    0.102401E+01
    0.329705E+03    0.147828E+01    0.338230E+00    0.210253E+02    0.658565E+00
    0.330483E+03    0.121875E+01    0.410257E+00    0.213114E+02    0.372877E+00
    0.331030E+03    0.105802E+01    0.472583E+00    0.215129E+02    0.182492E+00
    0.331337E+03    0.880964E+00    0.567560E+00    0.216262E+02    0.110843E+00
    0.331481E+03    0.241847E+00    0.206742E+01    0.216795E+02    0.100063E+00
    0.331788E+03    0.130124E+01    0.384249E+00    0.217929E+02    0.136832E+00
    0.332335E+03    0.125401E+01    0.398720E+00    0.219953E+02    0.312660E+00
    0.333113E+03    0.144576E+01    0.345839E+00    0.222837E+02    0.599897E+00
    0.334109E+03    0.180698E+01    0.276705E+00    0.226542E+02    0.970338E+00
    0.335307E+03    0.230148E+01    0.217252E+00    0.231013E+02    0.141743E+01
    0.336688E+03    0.290123E+01    0.172341E+00    0.236185E+02    0.193463E+01
    0.338228E+03    0.358668E+01    0.139405E+00    0.241981E+02    0.251427E+01
    0.339902E+03    0.434195E+01    0.115156E+00    0.248315E+02    0.314762E+01
    0.341684E+03    0.515217E+01    0.970465E-01    0.255088E+02    0.382498E+01
    0.343542E+03    0.600151E+01    0.833123E-01    0.262197E+02    0.453581E+01
    0.345448E+03    0.687887E+01    0.726864E-01    0.269527E+02    0.526885E+01
    0.347370E+03    0.777426E+01    0.643148E-01    0.276962E+02    0.601231E+01
    0.349276E+03    0.866093E+01    0.577305E-01    0.284379E+02    0.675405E+01
    0.351135E+03    0.952989E+01    0.524665E-01    0.291656E+02    0.748180E+01
    0.352916E+03    0.103674E+02    0.482281E-01    0.298672E+02    0.818333E+01
    0.354591E+03    0.111562E+02    0.448183E-01    0.305305E+02    0.884663E+01
    0.356131E+03    0.118862E+02    0.420655E-01    0.311439E+02    0.946005E+01
    0.357511E+03    0.125414E+02    0.398681E-01    0.316965E+02    0.100127E+02
    0.358709E+03    0.131128E+02    0.381305E-01    0.321783E+02    0.104944E+02
    0.359705E+03    0.135889E+02    0.367946E-01    0.325803E+02    0.108965E+02
    0.360483E+03    0.139611E+02    0.358137E-01    0.328953E+02    0.112114E+02
    0.361030E+03    0.142235E+02    0.351532E-01    0.331172E+02    0.114333E+02
    0.361337E+03    0.143710E+02    0.347924E-01    0.332419E+02    0.115580E+02
    0.362070E+03    0.147236E+02    0.339591E-01    0.335403E+02    0.118564E+02
    0.364885E+03    0.160827E+02    0.310894E-01    0.346933E+02    0.130094E+02
    0.369929E+03    0.185399E+02    0.269689E-01    0.367854E+02    0.151016E+02
    0.377166E+03    0.221179E+02    0.226061E-01    0.398434E+02    0.181596E+02
    0.386549E+03    0.268482E+02    0.186232E-01    0.439084E+02    0.222245E+02
    0.398020E+03    0.327702E+02    0.152578E-01    0.490438E+02    0.273599E+02
    0.411514E+03    0.399326E+02    0.125211E-01    0.553117E+02    0.336279E+02
    0.426963E+03    0.483891E+02    0.103329E-01    0.628121E+02    0.411282E+02
    0.444300E+03    0.582014E+02    0.859085E-02    0.716500E+02    0.499661E+02
    0.463462E+03    0.694327E+02    0.720121E-02    0.819296E+02    0.602457E+02
    0.484394E+03    0.821530E+02    0.608621E-02    0.937384E+02    0.720545E+02
    0.507052E+03    0.964278E+02    0.518523E-02    0.107122E+03    0.854383E+02
    0.531403E+03    0.112324E+03    0.445141E-02    0.122105E+03    0.100421E+03
    0.557434E+03    0.129906E+03    0.384895E-02    0.138691E+03    0.117007E+03
    0.585148E+03    0.149234E+03    0.335044E-02    0.156916E+03    0.135232E+03
    0.614570E+03    0.170381E+03    0.293460E-02    0.176854E+03    0.155170E+03
    0.645748E+03    0.193425E+03    0.258498E-02    0.198662E+03    0.176978E+03
    0.678760E+03    0.218476E+03    0.228858E-02    0.222614E+03    0.200930E+03
    0.713712E+03    0.245696E+03    0.203504E-02    0.249117E+03    0.227434E+03
    0.750750E+03    0.275342E+03    0.181593E-02    0.278590E+03    0.256906E+03
    0.790063E+03    0.307773E+03    0.162457E-02    0.311625E+03    0.289941E+03
    0.831890E+03    0.343518E+03    0.145553E-02    0.348974E+03    0.327290E+03
    0.876538E+03    0.383301E+03    0.130446E-02    0.391090E+03    0.369406E+03
    0.924398E+03    0.428057E+03    0.116807E-02    0.439106E+03    0.417422E+03
    0.975968E+03    0.478995E+03    0.104385E-02    0.493926E+03    0.472242E+03
    0.103189E+04    0.537670E+03    0.929938E-03    0.557345E+03    0.535661E+03
    0.109301E+04    0.606090E+03    0.824959E-03    0.630285E+03    0.608602E+03
    0.116045E+04    0.687024E+03    0.727777E-03    0.714866E+03    0.693183E+03
    0.123576E+04    0.784156E+03    0.637629E-03    0.814901E+03    0.793217E+03
    0.132113E+04    0.902473E+03    0.554033E-03    0.931793E+03    0.910109E+03
    0.141985E+04    0.104887E+04    0.476702E-03    0.107566E+04    0.105398E+04
    0.153707E+04    0.123497E+04    0.404868E-03    0.125877E+04    0.123708E+04
    0.168162E+04    0.148309E+04    0.337134E-03    0.150511E+04    0.148343E+04
    0.187067E+04    0.184055E+04    0.271658E-03    0.186227E+04    0.184058E+04
    0.214494E+04    0.242664E+04    0.206046E-03    0.244833E+04    0.242664E+04
    0.265127E+04    0.371898E+04    0.134445E-03    0.374066E+04    0.371898E+04
